,target,predict
0,2,4
1,14,18
2,23,23
3,20,20
4,25,24
5,4,5
6,16,16
7,24,19
8,18,19
9,7,7
10,16,16
11,16,16
12,14,12
13,15,16
14,14,13
15,5,6
16,13,23
17,21,21
18,16,15
19,17,16
20,19,20
21,24,23
22,13,13
23,17,17
24,4,5
25,17,16
26,18,17
27,23,23
28,16,17
29,22,22
30,26,25
31,20,20
32,21,21
33,20,19
34,25,24
35,12,12
36,24,25
37,17,17
38,13,11
39,19,19
40,16,17
41,22,22
42,15,20
43,15,15
44,24,24
45,22,20
46,16,16
47,15,14
48,21,22
49,15,14
50,14,14
51,8,8
52,13,14
53,17,16
54,23,25
55,23,23
56,17,17
57,20,20
58,10,10
59,12,12
60,13,13
61,20,20
62,20,9
63,8,8
64,24,25
65,19,20
66,20,19
67,8,8
68,16,16
69,18,18
70,20,19
71,13,11
72,19,20
73,13,12
74,17,17
75,13,14
76,15,19
77,21,21
78,16,16
79,2,2
80,12,12
81,24,24
82,20,21
83,20,4
84,6,5
85,14,13
86,17,16
87,26,22
88,16,14
89,18,18
90,16,16
91,20,20
92,25,25
93,20,21
94,16,16
95,22,22
96,14,14
97,23,23
98,19,15
99,18,18
100,26,24
101,21,13
102,15,15
103,25,24
104,20,20
105,19,12
106,8,8
107,17,16
108,13,13
109,20,25
110,17,20
111,18,17
112,13,13
113,7,6
114,16,19
115,8,7
116,19,20
117,16,17
118,10,11
119,25,24
120,16,16
121,16,16
122,1,3
123,16,16
124,21,24
125,21,21
126,9,10
127,19,20
128,21,21
129,18,21
130,19,20
131,16,16
132,18,20
133,20,20
134,2,2
135,19,19
136,19,20
137,4,4
138,22,22
139,12,11
140,14,14
141,8,8
142,17,9
143,11,11
144,16,20
145,19,19
146,17,17
147,16,23
148,15,15
149,18,21
150,13,17
151,22,21
152,19,23
153,16,16
154,6,6
155,12,11
156,19,19
157,23,23
158,15,14
159,18,20
160,22,21
161,12,13
162,15,15
163,22,22
164,21,21
165,25,25
166,19,20
167,25,24
168,11,9
169,5,6
170,24,24
171,16,16
172,15,21
173,13,14
174,21,22
175,18,15
176,4,4
177,20,21
178,16,17
179,22,23
180,26,18
181,13,25
182,13,12
183,20,23
184,8,8
185,10,10
186,11,9
187,16,17
188,7,7
189,24,23
190,16,16
191,7,7
192,21,20
193,6,4
194,17,20
195,22,22
196,15,16
197,17,17
198,16,16
199,16,21
200,21,21
201,11,13
202,5,5
203,11,11
204,4,5
205,23,23
206,7,6
207,25,24
208,8,8
209,19,22
210,15,14
211,17,18
212,14,14
213,23,23
214,13,13
215,6,6
216,5,3
217,16,16
218,17,16
219,11,11
220,17,19
221,13,13
222,4,4
223,20,20
224,19,19
225,24,24
226,23,23
227,2,2
228,9,9
229,15,16
230,15,20
231,18,18
232,14,12
233,26,22
234,20,21
235,16,20
236,2,2
237,21,19
238,12,12
239,25,25
240,6,6
241,9,8
242,11,11
243,14,14
244,18,19
245,19,19
246,24,23
247,10,16
248,6,6
249,10,10
250,18,20
251,11,11
252,13,13
253,5,6
254,16,17
255,16,14
256,16,23
257,25,24
258,12,11
259,7,6
260,19,18
261,20,21
262,13,15
263,7,7
264,16,16
265,21,20
266,16,16
267,13,14
268,23,22
269,10,13
270,3,3
271,22,21
272,20,15
273,21,19
274,7,8
275,13,12
276,16,16
277,23,23
278,17,17
279,22,22
280,7,8
281,15,25
282,15,15
283,18,11
284,8,8
285,12,11
286,15,16
287,23,22
288,22,14
289,17,21
290,17,17
291,18,18
292,15,14
293,23,23
294,18,11
295,19,19
296,7,8
297,21,23
298,21,20
299,14,14
300,25,25
301,16,24
302,16,14
303,23,24
304,15,16
305,18,18
306,18,19
307,20,20
308,15,15
309,5,6
310,6,7
311,23,23
312,19,19
313,18,18
314,23,22
315,13,13
316,16,16
317,20,20
318,19,19
319,15,15
320,17,17
321,23,23
322,17,17
323,20,20
324,20,18
325,19,19
326,19,20
327,21,21
328,16,21
329,21,21
330,11,11
331,13,14
332,6,5
333,17,17
334,10,10
335,5,5
336,25,25
337,15,16
338,6,6
339,22,24
340,15,21
341,4,4
342,10,10
343,5,5
344,20,20
345,25,25
346,14,14
347,20,19
348,17,16
349,16,16
350,21,23
351,15,14
352,23,22
353,23,23
354,12,12
355,10,9
356,20,20
357,17,17
358,20,11
359,16,16
360,16,25
361,18,18
362,20,21
363,6,7
364,21,20
365,8,9
366,15,14
367,25,24
368,7,7
369,16,19
370,23,23
371,28,25
372,17,17
373,22,23
374,8,8
375,25,24
376,24,24
377,16,16
378,16,21
379,15,15
380,23,24
381,14,16
382,19,20
383,9,8
384,9,10
385,17,16
386,21,21
387,22,22
388,18,19
389,10,10
390,14,16
391,17,17
392,16,16
393,26,25
394,17,18
395,23,23
396,14,13
397,11,11
398,7,7
399,20,4
400,23,23
401,12,12
402,15,14
403,15,15
404,21,20
405,25,24
406,10,10
407,6,6
408,16,13
409,16,16
410,14,15
411,20,24
412,4,5
413,19,12
414,8,8
415,14,14
416,17,16
417,17,17
418,23,23
419,17,18
420,15,15
421,20,20
422,18,17
423,5,6
424,19,19
425,3,7
426,15,22
427,10,11
428,16,21
429,22,22
430,14,14
431,13,13
432,16,15
433,21,21
434,20,21
435,8,7
436,15,15
437,14,15
438,17,16
439,24,23
440,18,20
441,16,20
442,8,7
443,21,20
444,19,19
445,14,14
446,12,11
447,15,13
448,20,20
449,3,3
450,19,21
451,11,10
452,16,17
453,19,18
454,21,18
455,17,18
456,19,12
457,25,25
458,13,14
459,20,22
460,11,10
461,25,25
462,16,22
463,20,20
464,8,8
465,23,23
466,18,19
467,15,15
468,6,7
469,17,17
470,23,24
471,14,14
472,12,13
473,19,20
474,14,13
475,21,22
476,12,15
477,20,21
478,17,17
479,6,5
480,23,22
481,16,17
482,15,15
483,19,22
484,25,25
485,23,24
486,17,17
487,18,19
488,16,17
489,20,20
490,6,7
491,8,7
492,22,22
493,1,2
494,18,19
495,12,12
496,20,21
497,15,14
498,12,12
499,14,14
500,22,16
501,13,11
502,24,23
503,20,14
504,15,15
505,17,18
506,17,17
507,14,14
508,25,24
509,18,22
510,16,16
511,5,5
512,22,22
513,19,20
514,15,16
515,16,16
516,11,11
517,15,16
518,13,13
519,14,13
520,29,25
521,21,21
522,9,9
523,21,19
524,23,22
525,12,13
526,18,17
527,19,19
528,14,17
529,24,24
530,12,12
531,24,24
532,23,22
533,16,17
534,14,14
535,18,18
536,21,22
537,16,15
538,17,20
539,17,21
540,26,25
541,22,24
542,10,10
543,22,23
544,19,19
545,10,10
546,14,14
547,16,16
548,6,6
549,19,22
550,18,21
551,19,16
552,23,24
553,9,8
554,11,11
555,11,11
556,23,24
557,12,11
558,20,20
559,11,12
560,20,20
561,9,8
562,4,5
563,11,10
564,24,24
565,16,16
566,13,22
567,14,15
568,15,14
569,20,21
570,17,18
571,20,4
572,23,23
573,19,18
574,19,21
575,16,16
576,23,23
577,4,6
578,13,13
579,20,20
580,22,21
581,19,21
582,9,10
583,12,11
584,18,18
585,17,17
586,14,14
587,15,15
588,23,24
589,20,20
590,13,14
591,14,20
592,17,20
593,17,17
594,13,13
595,15,22
596,10,11
597,18,18
598,15,15
599,12,11
600,22,23
601,22,22
602,15,15
603,13,14
604,16,17
605,17,18
606,17,19
607,17,17
608,15,14
609,19,18
610,17,17
611,4,5
612,19,19
613,17,17
614,16,16
615,3,4
616,13,9
617,13,13
618,22,22
619,16,16
620,15,14
621,12,12
622,18,18
623,8,11
624,14,14
625,20,20
626,11,11
627,20,4
628,14,16
629,23,23
630,19,21
631,11,10
632,13,13
633,18,18
634,8,7
635,15,14
636,12,13
637,22,20
638,16,25
639,25,24
640,3,3
641,8,7
642,23,21
643,16,15
644,23,23
645,16,22
646,13,13
647,24,24
648,20,19
649,18,15
650,10,11
651,21,21
652,19,20
653,21,21
654,10,10
655,12,11
656,16,16
657,14,15
658,20,20
659,21,20
660,22,20
661,9,10
662,16,15
663,23,23
664,16,16
665,6,9
666,19,18
667,20,20
668,19,12
669,15,14
670,22,22
671,22,21
672,2,2
673,18,19
674,24,20
675,9,8
676,8,10
677,9,8
678,18,20
679,21,21
680,19,19
681,6,21
682,19,20
683,22,16
684,30,25
685,22,23
686,22,22
687,13,13
688,28,25
689,25,23
690,23,22
691,27,21
692,24,25
693,16,17
694,16,16
695,23,23
696,11,11
697,16,16
698,7,7
699,19,19
700,16,17
701,10,9
702,19,18
703,7,21
704,21,21
705,17,25
706,9,8
707,17,17
708,19,20
709,13,13
710,17,18
711,24,25
712,19,19
713,17,17
714,21,22
715,13,14
716,16,16
717,18,23
718,19,18
719,23,22
720,12,11
721,19,22
722,23,20
723,19,18
724,17,17
725,17,23
726,16,16
727,21,23
728,17,16
729,18,18
730,18,17
731,11,11
732,13,13
733,20,20
734,21,21
735,18,18
736,12,13
737,7,8
738,15,15
739,25,23
740,17,17
741,17,18
742,20,19
743,20,20
744,13,14
745,14,16
746,17,18
747,9,8
748,5,6
749,20,21
750,19,20
751,14,13
752,17,14
753,16,14
754,17,14
755,17,20
756,4,3
757,3,3
758,22,25
759,12,13
760,8,8
761,13,14
762,26,25
763,21,20
764,19,19
765,21,19
766,16,14
767,11,10
768,11,11
769,23,22
770,8,8
771,25,24
772,25,25
773,9,9
774,14,14
775,12,11
776,13,14
777,23,4
778,21,21
779,14,15
780,17,16
781,21,20
782,18,23
783,25,25
784,16,16
785,12,11
786,10,10
787,24,24
788,13,13
789,17,4
790,20,23
791,23,4
792,14,14
793,17,17
794,17,18
795,23,22
796,18,18
797,22,15
798,9,9
799,16,17
800,24,23
801,20,14
802,6,5
803,24,24
804,10,10
805,6,6
806,19,18
807,16,16
808,20,20
809,13,13
810,6,7
811,15,15
812,14,16
813,7,7
814,23,23
815,2,2
816,17,15
817,16,17
818,20,21
819,24,24
820,23,24
821,19,19
822,22,21
823,19,11
824,9,8
825,22,23
826,15,15
827,16,12
828,15,16
829,21,19
830,11,10
831,12,13
832,13,14
833,11,9
834,20,20
835,11,11
836,18,18
837,20,20
838,5,4
839,24,24
840,24,24
841,8,10
842,21,22
843,22,22
844,23,23
845,20,20
846,6,7
847,13,12
848,23,24
849,23,23
850,14,14
851,6,7
852,17,16
853,14,14
854,14,14
855,22,20
856,18,18
857,18,18
858,25,24
859,21,19
860,10,10
861,16,17
862,16,16
863,18,20
864,7,7
865,18,16
866,16,16
867,21,21
868,14,14
869,14,14
870,20,20
871,18,18
872,4,3
873,21,12
874,17,17
875,20,12
876,15,14
877,16,20
878,18,16
879,19,20
880,20,20
881,3,2
882,26,25
883,15,16
884,21,4
885,13,13
886,18,17
887,14,13
888,23,22
889,19,18
890,9,9
891,18,19
892,23,23
893,15,15
894,16,23
895,10,9
896,18,18
897,18,15
898,15,16
899,21,21
900,11,11
901,14,16
902,18,18
903,22,22
904,14,14
905,6,7
906,14,15
907,8,7
908,18,19
909,17,17
910,15,15
911,25,25
912,16,15
913,14,14
914,17,17
915,14,14
916,17,13
917,10,11
918,16,16
919,8,9
920,3,3
921,24,25
922,26,25
923,21,21
924,20,20
925,6,6
926,10,8
927,18,17
928,10,10
929,26,25
930,12,12
931,18,18
932,10,10
933,12,11
934,19,19
935,21,20
936,17,17
937,16,15
938,4,5
939,20,20
940,12,14
941,13,14
942,18,14
943,23,11
944,23,24
945,21,22
946,25,25
947,7,7
948,12,13
949,17,18
950,12,15
951,18,17
952,7,6
953,21,21
954,20,18
955,17,17
956,11,11
957,13,14
958,21,20
959,26,24
960,13,13
961,9,10
962,13,12
963,17,20
964,25,25
965,4,5
966,16,16
967,16,16
968,8,8
969,24,23
970,12,12
971,9,9
972,17,25
973,24,24
974,11,11
975,16,20
976,16,17
977,14,15
978,9,8
979,13,13
980,7,8
981,13,13
982,5,7
983,8,9
984,12,12
985,14,14
986,17,17
987,13,13
988,13,12
989,14,14
990,5,5
991,22,23
992,10,11
993,20,25
994,18,18
995,14,14
996,20,20
997,24,25
998,14,12
999,11,10
1000,22,20
1001,14,25
1002,18,18
1003,11,11
1004,16,16
1005,24,24
1006,15,14
1007,23,22
1008,14,14
1009,9,8
1010,20,20
1011,17,18
1012,13,13
1013,20,19
1014,20,19
1015,18,17
1016,18,19
1017,18,20
1018,14,12
1019,12,12
1020,24,20
1021,22,22
1022,10,10
1023,19,19
1024,20,4
1025,15,15
1026,16,16
1027,16,16
1028,17,19
1029,18,25
1030,13,12
1031,19,20
1032,12,12
1033,3,5
1034,21,20
1035,20,20
1036,11,11
1037,9,9
1038,16,16
1039,21,23
1040,23,23
1041,16,16
1042,26,25
1043,18,18
1044,5,5
1045,18,20
1046,12,11
1047,2,4
1048,18,14
1049,21,23
1050,14,15
1051,14,20
1052,3,3
1053,18,18
1054,16,24
1055,23,22
1056,16,18
1057,19,21
1058,0,2
1059,12,12
1060,3,3
1061,23,22
1062,12,12
1063,17,21
1064,12,13
1065,19,18
1066,23,25
1067,19,16
1068,6,6
1069,19,19
1070,23,24
1071,25,24
1072,18,7
1073,7,7
1074,20,20
1075,18,18
1076,15,14
1077,9,13
1078,21,10
1079,14,14
1080,18,18
1081,10,11
1082,7,6
1083,13,13
1084,21,20
1085,13,13
1086,16,16
1087,8,8
1088,14,16
1089,17,15
1090,19,5
1091,15,16
1092,21,22
1093,16,16
1094,12,12
1095,24,25
1096,23,23
1097,17,21
1098,18,19
1099,14,14
1100,16,20
1101,16,15
1102,13,14
1103,10,8
1104,21,22
1105,4,3
1106,9,9
1107,16,16
1108,8,9
1109,12,12
1110,10,11
1111,20,5
1112,18,17
1113,19,19
1114,18,12
1115,19,20
1116,19,20
1117,10,11
1118,18,19
1119,19,19
1120,18,18
1121,11,11
1122,17,17
1123,16,14
1124,20,19
1125,19,18
1126,21,22
1127,21,21
1128,17,17
1129,15,15
1130,7,7
1131,15,15
1132,23,23
1133,17,4
1134,20,19
1135,24,23
1136,12,14
1137,4,4
1138,20,23
1139,20,20
1140,17,17
1141,12,12
1142,16,16
1143,17,22
1144,22,20
1145,23,23
1146,4,6
1147,9,8
1148,5,4
1149,8,7
1150,19,19
1151,13,12
1152,22,23
1153,21,20
1154,19,19
1155,17,17
1156,17,21
1157,11,11
1158,18,23
1159,10,10
1160,18,23
1161,13,13
1162,7,7
1163,18,20
1164,21,23
1165,12,13
1166,20,25
1167,17,24
1168,19,20
1169,10,10
1170,18,19
1171,19,22
1172,15,19
1173,19,19
1174,5,5
1175,19,19
1176,14,14
1177,15,21
1178,21,21
1179,19,19
1180,19,18
1181,22,19
1182,15,16
1183,8,8
1184,19,20
1185,13,13
1186,12,11
1187,15,20
1188,9,9
1189,17,20
1190,26,22
1191,29,25
1192,6,6
1193,19,25
1194,23,20
1195,19,14
1196,23,23
1197,6,6
1198,12,12
1199,17,23
1200,21,22
1201,22,23
1202,24,24
1203,20,19
1204,18,20
1205,16,16
1206,21,11
1207,8,7
1208,14,19
1209,5,7
1210,14,15
1211,11,11
1212,10,10
1213,21,11
1214,16,17
1215,10,11
1216,17,17
1217,23,20
1218,21,21
1219,27,19
1220,11,11
1221,23,25
1222,16,15
1223,12,14
1224,20,19
1225,20,23
1226,12,12
1227,18,17
1228,20,19
1229,17,16
1230,17,17
1231,14,13
1232,20,22
1233,22,22
1234,12,13
1235,10,11
1236,2,3
1237,27,25
1238,30,25
1239,21,22
1240,23,23
1241,22,23
1242,21,4
1243,4,6
1244,5,7
1245,19,19
1246,19,18
1247,19,18
1248,24,24
1249,20,19
1250,18,18
1251,10,10
1252,16,16
1253,13,13
1254,18,22
1255,21,21
1256,19,19
1257,3,3
1258,14,14
1259,7,7
1260,6,6
1261,17,17
1262,20,19
1263,21,20
1264,12,12
1265,16,16
1266,16,16
1267,15,15
1268,10,11
1269,10,10
1270,2,2
1271,19,4
1272,19,19
1273,18,12
1274,14,16
1275,5,6
1276,16,17
1277,9,9
1278,19,19
1279,10,11
1280,16,16
1281,17,18
1282,17,17
1283,13,14
1284,19,22
1285,16,16
1286,18,18
1287,22,22
1288,5,7
1289,10,10
1290,22,22
1291,19,18
1292,21,20
1293,11,11
1294,18,25
1295,13,13
1296,22,23
1297,19,20
1298,8,8
1299,17,17
1300,15,16
1301,22,20
1302,10,8
1303,11,11
1304,14,14
1305,10,10
1306,23,23
1307,4,4
1308,19,18
1309,24,23
1310,9,10
1311,21,19
1312,10,9
1313,24,20
1314,17,20
1315,20,21
1316,20,20
1317,15,15
1318,20,25
1319,23,23
1320,15,20
1321,16,21
1322,26,20
1323,15,15
1324,25,24
1325,16,15
1326,22,4
1327,9,9
1328,25,23
1329,7,8
1330,18,18
1331,11,11
1332,17,17
1333,16,16
1334,19,19
1335,14,14
1336,11,10
1337,26,25
1338,15,14
1339,16,16
1340,12,13
1341,17,17
1342,16,16
1343,23,23
1344,6,5
1345,16,16
1346,22,22
1347,13,11
1348,16,17
1349,18,11
1350,6,6
1351,22,23
1352,23,25
1353,11,11
1354,17,21
1355,12,12
1356,13,12
1357,22,22
1358,14,15
1359,8,9
1360,16,14
1361,21,21
1362,20,21
1363,17,17
1364,17,17
1365,19,19
1366,15,14
1367,22,22
1368,12,11
1369,12,12
1370,22,15
1371,9,11
1372,7,7
1373,13,13
1374,20,20
1375,20,20
1376,9,9
1377,22,20
1378,21,14
1379,17,23
1380,26,25
1381,19,20
1382,18,19
1383,25,25
1384,13,12
1385,20,20
1386,14,13
1387,18,17
1388,15,16
1389,21,22
1390,16,16
1391,10,10
1392,12,8
1393,23,23
1394,17,16
1395,19,19
1396,15,16
1397,20,21
1398,17,17
1399,14,13
1400,22,22
1401,20,18
1402,23,23
1403,17,17
1404,19,19
1405,14,14
1406,22,20
1407,20,18
1408,21,22
1409,25,24
1410,20,21
1411,16,17
1412,23,24
1413,17,18
1414,12,13
1415,3,4
1416,17,21
1417,16,14
1418,25,24
1419,24,24
1420,12,12
1421,8,7
1422,19,19
1423,17,18
1424,7,7
1425,18,20
1426,17,24
1427,13,10
1428,12,12
1429,20,20
1430,20,20
1431,17,25
1432,22,18
1433,14,15
1434,17,22
1435,16,16
1436,14,15
1437,17,17
1438,15,16
1439,16,15
1440,17,17
1441,17,17
1442,18,18
1443,13,15
1444,25,21
1445,21,21
1446,3,3
1447,16,16
1448,14,15
1449,20,22
1450,19,19
1451,14,14
1452,18,18
1453,20,22
1454,23,22
1455,18,20
1456,16,16
1457,18,18
1458,13,13
1459,15,17
1460,20,19
1461,7,7
1462,24,24
1463,22,19
1464,13,13
1465,21,20
1466,19,13
1467,20,18
1468,14,15
1469,7,7
1470,14,13
1471,23,23
1472,18,18
1473,17,18
1474,19,20
1475,8,10
1476,18,17
1477,17,18
1478,22,23
1479,10,9
1480,13,13
1481,24,22
1482,10,9
1483,16,17
1484,20,22
1485,11,11
1486,16,17
1487,24,23
1488,25,25
1489,21,21
1490,22,23
1491,7,7
1492,16,14
1493,24,23
1494,27,25
1495,2,2
1496,28,25
1497,17,18
1498,23,23
1499,21,20
1500,18,12
1501,23,24
1502,21,20
1503,8,8
1504,23,24
1505,7,7
1506,15,14
1507,20,22
1508,17,17
1509,7,7
1510,17,17
1511,17,17
1512,14,14
1513,18,17
1514,20,21
1515,18,20
1516,15,13
1517,17,20
1518,26,20
1519,14,14
1520,14,14
1521,17,24
1522,9,9
1523,25,24
1524,17,17
1525,23,24
1526,17,17
1527,17,20
1528,10,11
1529,22,23
1530,16,14
1531,18,18
1532,4,4
1533,19,19
1534,19,18
1535,14,14
1536,23,22
1537,11,9
1538,16,16
1539,6,6
1540,21,21
1541,20,20
1542,14,14
1543,1,2
1544,15,15
1545,21,20
1546,20,19
1547,19,19
1548,18,15
1549,20,20
1550,17,17
1551,17,15
1552,19,21
1553,23,23
1554,16,17
1555,12,7
1556,3,4
1557,16,17
1558,26,24
1559,16,16
1560,14,14
1561,15,14
1562,13,20
1563,4,7
1564,20,20
1565,24,24
1566,16,16
1567,18,18
1568,8,7
1569,17,22
1570,16,19
1571,18,18
1572,23,23
1573,12,12
1574,15,14
1575,17,17
1576,14,16
1577,11,11
1578,25,25
1579,12,12
1580,8,8
1581,5,5
1582,15,15
1583,16,20
1584,19,19
1585,15,15
1586,11,11
1587,29,25
1588,18,11
1589,15,14
1590,10,21
1591,19,15
1592,24,24
1593,14,21
1594,12,13
1595,2,2
1596,16,16
1597,19,19
1598,16,17
1599,20,21
1600,24,23
1601,25,24
1602,3,3
1603,17,17
1604,22,21
1605,17,17
1606,20,21
1607,7,8
1608,24,24
1609,23,23
1610,17,17
1611,23,22
1612,19,19
1613,5,6
1614,6,6
1615,12,12
1616,14,14
1617,17,20
1618,6,7
1619,0,3
1620,19,22
1621,19,18
1622,16,16
1623,16,16
1624,14,13
1625,8,7
1626,10,9
1627,14,14
1628,20,20
1629,13,14
1630,15,12
1631,13,13
1632,21,21
1633,19,19
1634,25,24
1635,25,25
1636,18,17
1637,8,8
1638,16,17
1639,6,5
1640,11,11
1641,15,15
1642,20,20
1643,14,14
1644,22,21
1645,9,10
1646,19,20
1647,8,9
1648,8,7
1649,20,20
1650,21,21
1651,8,8
1652,21,22
1653,17,20
1654,23,23
1655,20,20
1656,18,18
1657,19,19
1658,17,20
1659,19,14
1660,22,22
1661,16,17
1662,5,4
1663,21,24
1664,22,21
1665,17,16
1666,18,18
1667,8,8
1668,22,20
1669,19,19
1670,5,5
1671,1,1
1672,15,20
1673,13,14
1674,18,18
1675,11,7
1676,17,20
1677,18,18
1678,21,21
1679,7,7
1680,7,6
1681,15,24
1682,8,8
1683,20,24
1684,15,14
1685,14,14
1686,22,24
1687,13,14
1688,21,14
1689,17,16
1690,24,22
1691,20,22
1692,11,12
1693,17,17
1694,12,12
1695,16,16
1696,13,11
1697,13,17
1698,6,6
1699,16,11
1700,16,16
1701,17,16
1702,20,21
1703,17,17
1704,14,14
1705,25,25
1706,18,18
1707,16,17
1708,22,22
1709,20,21
1710,22,23
1711,4,5
1712,20,21
1713,18,4
1714,8,7
1715,7,7
1716,25,24
1717,22,25
1718,18,12
1719,15,15
1720,8,8
1721,12,13
1722,8,8
1723,17,16
1724,17,18
1725,17,20
1726,15,15
1727,18,18
1728,20,19
1729,17,16
1730,19,21
1731,17,18
1732,15,14
1733,13,13
1734,8,8
1735,23,21
1736,11,12
1737,7,8
1738,12,14
1739,8,8
1740,18,18
1741,13,20
1742,14,14
1743,17,12
1744,20,25
1745,2,2
1746,17,18
1747,19,19
1748,20,18
1749,18,20
1750,19,19
1751,16,13
1752,11,13
1753,15,20
1754,22,23
1755,14,14
1756,22,22
1757,17,4
1758,25,25
1759,12,12
1760,16,16
1761,9,9
1762,9,14
1763,20,20
1764,11,11
1765,12,13
1766,15,16
1767,18,18
1768,10,11
1769,11,11
1770,18,19
1771,21,23
1772,6,6
1773,25,22
1774,1,2
1775,17,16
1776,13,22
1777,20,20
1778,23,22
1779,17,16
1780,14,14
1781,9,9
1782,19,20
1783,16,16
1784,9,9
1785,18,18
1786,10,10
1787,17,17
1788,11,11
1789,19,19
1790,17,17
1791,9,9
1792,17,17
1793,11,11
1794,28,25
1795,15,14
1796,24,23
1797,16,16
1798,12,12
1799,18,22
1800,17,16
1801,25,24
1802,13,14
1803,11,10
1804,23,20
1805,20,15
1806,22,23
1807,16,15
1808,16,14
1809,13,12
1810,25,25
1811,15,18
1812,16,15
1813,21,21
1814,26,24
1815,15,14
1816,20,19
1817,19,18
1818,20,5
1819,20,16
1820,21,21
1821,14,14
1822,18,17
1823,12,12
1824,14,14
1825,10,10
1826,19,21
1827,15,14
1828,17,18
1829,11,11
1830,21,21
1831,23,23
1832,14,14
1833,21,24
1834,13,12
1835,10,10
1836,18,20
1837,21,22
1838,15,14
1839,7,5
1840,4,5
1841,20,20
1842,7,8
1843,12,11
1844,24,24
1845,19,20
1846,5,5
1847,15,15
1848,22,23
1849,23,25
1850,18,18
1851,28,25
1852,6,6
1853,21,20
1854,21,20
1855,21,19
1856,15,14
1857,15,20
1858,21,19
1859,12,14
1860,17,12
1861,2,2
1862,19,19
1863,17,20
1864,5,6
1865,14,13
1866,8,7
1867,22,23
1868,25,24
1869,16,16
1870,10,10
1871,8,7
1872,16,16
1873,15,18
1874,19,18
1875,21,13
1876,28,25
1877,15,16
1878,25,25
1879,13,13
1880,6,7
1881,6,6
1882,14,15
1883,13,14
1884,9,8
1885,24,23
1886,23,23
1887,23,15
1888,7,7
1889,27,25
1890,22,23
1891,19,19
1892,17,18
1893,22,23
1894,18,22
1895,12,12
1896,19,18
1897,10,10
1898,1,3
1899,17,17
1900,21,23
1901,8,8
1902,15,14
1903,21,20
1904,18,22
1905,7,7
1906,8,9
1907,3,3
1908,6,7
1909,15,14
1910,19,23
1911,20,12
1912,13,13
1913,18,20
1914,18,22
1915,14,22
1916,23,22
1917,13,13
1918,2,3
1919,18,18
1920,24,20
1921,16,17
1922,18,18
1923,9,9
1924,17,17
1925,23,24
1926,25,25
1927,17,17
1928,7,7
1929,18,18
1930,24,24
1931,14,20
1932,15,14
1933,20,23
1934,18,17
1935,18,18
1936,20,20
1937,9,9
1938,16,16
1939,19,11
1940,23,23
1941,19,18
1942,16,16
1943,16,16
1944,21,21
1945,9,12
1946,12,12
1947,8,8
1948,2,2
1949,10,11
1950,18,18
1951,17,17
1952,20,20
1953,16,16
1954,23,22
1955,21,21
1956,22,20
1957,16,17
1958,13,13
1959,17,17
1960,13,13
1961,5,6
1962,19,19
1963,16,16
1964,9,8
1965,14,15
1966,23,22
1967,20,22
1968,10,11
1969,22,7
1970,11,10
1971,19,19
1972,17,18
1973,10,11
1974,20,22
1975,21,21
1976,5,5
1977,24,25
1978,7,7
1979,19,19
1980,4,3
1981,14,14
1982,16,13
1983,18,19
1984,13,14
1985,17,17
1986,16,17
1987,13,13
1988,21,20
1989,10,11
1990,24,24
1991,22,22
1992,17,17
1993,5,6
1994,14,14
1995,24,22
1996,19,19
1997,7,7
1998,22,22
1999,26,25
2000,11,11
2001,20,18
2002,10,11
2003,14,14
2004,24,24
2005,21,20
2006,6,7
2007,20,20
2008,23,18
2009,14,14
2010,15,21
2011,17,17
2012,16,15
2013,22,23
2014,16,17
2015,15,14
2016,17,16
2017,21,20
2018,17,17
2019,20,20
2020,26,25
2021,14,12
2022,20,20
2023,17,18
2024,18,20
2025,17,22
2026,16,17
2027,19,23
2028,19,20
2029,17,16
2030,16,16
2031,17,17
2032,23,20
2033,17,18
2034,14,14
2035,18,18
2036,13,13
2037,2,2
2038,20,20
2039,23,23
2040,21,22
2041,17,18
2042,15,23
2043,18,20
2044,7,7
2045,7,7
2046,17,17
2047,13,13
2048,10,10
2049,18,20
2050,18,17
2051,22,21
2052,11,12
2053,17,20
2054,15,14
2055,14,14
2056,20,20
2057,22,20
2058,20,20
2059,14,14
2060,13,13
2061,20,20
2062,23,23
2063,27,25
2064,13,12
2065,16,22
2066,21,21
2067,13,14
2068,17,16
2069,20,20
2070,25,20
2071,15,23
2072,20,19
2073,16,17
2074,18,22
2075,24,23
2076,22,22
2077,9,9
2078,19,21
2079,11,12
2080,20,20
2081,20,20
2082,21,21
2083,6,6
2084,13,15
2085,11,11
2086,12,11
2087,22,22
2088,2,2
2089,3,7
2090,7,6
2091,24,24
2092,16,18
2093,16,17
2094,21,19
2095,17,14
2096,2,2
2097,18,18
2098,11,11
2099,16,17
2100,11,12
2101,19,19
2102,4,3
2103,16,15
2104,12,12
2105,20,19
2106,21,21
2107,6,8
2108,18,18
2109,25,24
2110,6,5
2111,13,13
2112,18,17
2113,17,17
2114,9,8
2115,13,13
2116,22,22
2117,8,7
2118,14,20
2119,10,11
2120,17,19
2121,20,20
2122,15,15
2123,21,20
2124,15,13
2125,3,3
2126,14,20
2127,17,17
2128,9,9
2129,5,5
2130,6,7
2131,18,18
2132,13,13
2133,20,22
2134,16,16
2135,20,19
2136,24,24
2137,22,20
2138,15,15
2139,10,10
2140,9,8
2141,10,7
2142,17,17
2143,10,10
2144,25,25
2145,12,11
2146,10,11
2147,18,18
2148,17,17
2149,20,23
2150,3,3
2151,20,20
2152,15,15
2153,6,7
2154,20,21
2155,20,22
2156,14,13
2157,15,15
2158,12,12
2159,6,6
2160,21,20
2161,12,13
2162,20,22
2163,14,14
2164,12,12
2165,18,17
2166,7,7
2167,6,6
2168,18,17
2169,6,7
2170,16,20
2171,14,12
2172,26,20
2173,17,16
2174,16,15
2175,22,22
2176,24,23
2177,5,6
2178,13,14
2179,21,21
2180,21,22
2181,25,24
2182,11,11
2183,22,22
2184,19,16
2185,15,14
2186,13,13
2187,7,7
2188,20,13
2189,12,13
2190,24,24
2191,11,11
2192,21,21
2193,9,8
2194,18,19
2195,15,15
2196,14,14
2197,7,7
2198,17,17
2199,21,19
2200,1,2
2201,24,24
2202,20,22
2203,17,12
2204,10,10
2205,22,21
2206,18,18
2207,25,25
2208,8,8
2209,26,24
2210,3,5
2211,17,18
2212,23,24
2213,21,21
2214,13,12
2215,16,15
2216,17,17
2217,3,4
2218,19,19
2219,19,19
2220,22,22
2221,22,13
2222,3,3
2223,15,15
2224,24,22
2225,2,2
2226,21,21
2227,21,20
2228,16,16
2229,16,16
2230,18,17
2231,19,20
2232,18,18
2233,12,11
2234,8,8
2235,19,18
2236,16,16
2237,19,17
2238,21,21
2239,17,23
2240,22,23
2241,18,11
2242,21,21
2243,19,14
2244,17,17
2245,24,20
2246,14,15
2247,17,17
2248,16,17
2249,20,20
2250,26,25
2251,4,3
2252,19,25
2253,23,23
2254,8,9
2255,17,20
2256,14,14
2257,13,13
2258,9,6
2259,5,5
2260,22,15
2261,10,12
2262,23,23
2263,15,16
2264,13,12
2265,10,10
2266,8,10
2267,16,15
2268,13,13
2269,21,4
2270,10,11
2271,21,22
2272,22,22
2273,14,14
2274,20,21
2275,10,10
2276,9,10
2277,22,23
2278,9,10
2279,13,13
2280,18,24
2281,18,18
2282,17,17
2283,18,18
2284,17,17
2285,19,23
2286,14,14
2287,16,16
2288,25,25
2289,16,17
2290,19,14
2291,3,3
2292,24,23
2293,21,22
2294,15,15
2295,19,20
2296,14,14
2297,19,15
2298,19,22
2299,8,8
2300,13,12
2301,6,6
2302,26,25
2303,17,15
2304,14,13
2305,9,9
2306,24,24
2307,17,17
2308,9,9
2309,18,19
2310,24,24
2311,21,21
2312,18,21
2313,11,10
2314,14,14
2315,23,23
2316,20,19
2317,18,18
2318,17,21
2319,9,9
2320,17,18
2321,15,15
2322,24,24
2323,19,18
2324,18,19
2325,13,13
2326,25,25
2327,18,18
2328,19,19
2329,20,20
2330,20,20
2331,17,17
2332,10,9
2333,19,19
2334,20,20
2335,20,21
2336,16,21
2337,4,3
2338,21,20
2339,17,17
2340,20,19
2341,22,22
2342,23,13
2343,16,15
2344,20,21
2345,22,14
2346,16,16
2347,16,23
2348,20,20
2349,18,10
2350,1,2
2351,15,23
2352,22,23
2353,19,19
2354,11,9
2355,4,6
2356,5,5
2357,14,13
2358,14,14
2359,23,18
2360,15,15
2361,24,25
2362,15,13
2363,20,20
2364,7,5
2365,16,16
2366,12,13
2367,11,12
2368,15,15
2369,26,20
2370,10,8
2371,7,7
2372,26,23
2373,12,12
2374,9,9
2375,25,25
2376,7,8
2377,16,16
2378,15,17
2379,21,21
2380,16,17
2381,14,14
2382,15,15
2383,29,25
2384,14,13
2385,11,8
2386,17,17
2387,21,20
2388,16,15
2389,17,17
2390,19,19
2391,18,14
2392,14,14
2393,19,19
2394,24,24
2395,17,17
2396,19,21
2397,12,14
2398,22,23
2399,19,19
2400,12,13
2401,11,11
2402,11,10
2403,24,24
2404,23,23
2405,16,22
2406,18,19
2407,23,23
2408,18,18
2409,11,8
2410,23,24
2411,20,23
2412,25,18
2413,16,16
2414,15,16
2415,24,24
2416,21,25
2417,17,17
2418,6,7
2419,8,7
2420,20,14
2421,20,19
2422,16,22
2423,25,22
2424,6,6
2425,20,19
2426,18,21
2427,16,17
2428,12,12
2429,18,18
2430,4,3
2431,13,12
2432,19,19
2433,15,10
2434,5,6
2435,17,17
2436,11,11
2437,18,20
2438,24,20
2439,12,12
2440,15,16
2441,22,23
2442,18,20
2443,12,12
2444,22,21
2445,21,22
2446,6,6
2447,17,17
2448,9,8
2449,9,8
2450,19,15
2451,19,21
2452,10,11
2453,7,7
2454,10,10
2455,19,20
2456,11,11
2457,14,14
2458,17,16
2459,20,20
2460,12,14
2461,19,23
2462,23,23
2463,18,5
2464,6,7
2465,16,17
2466,25,24
2467,20,14
2468,26,25
2469,19,19
2470,13,14
2471,21,20
2472,20,12
2473,22,23
2474,18,19
2475,20,21
2476,9,11
2477,3,4
2478,21,21
2479,26,25
2480,18,21
2481,25,24
2482,19,19
2483,23,22
2484,15,14
2485,22,23
2486,18,17
2487,18,18
2488,23,23
2489,19,20
2490,22,22
2491,10,10
2492,2,2
2493,17,17
2494,20,13
2495,10,11
2496,10,11
2497,10,11
2498,8,9
2499,5,6
2500,15,16
2501,6,7
2502,15,15
2503,5,4
2504,20,13
2505,13,13
2506,11,11
2507,17,17
2508,7,6
2509,17,17
2510,15,16
2511,25,24
2512,12,13
2513,12,11
2514,16,17
2515,19,19
2516,15,15
2517,23,23
2518,18,16
2519,17,17
2520,16,22
2521,10,10
2522,16,16
2523,9,9
2524,19,18
2525,11,11
2526,17,18
2527,6,6
2528,19,19
2529,4,8
2530,12,12
2531,21,20
2532,14,14
2533,17,17
2534,21,21
2535,15,14
2536,20,19
2537,7,7
2538,16,20
2539,20,4
2540,18,18
2541,19,20
2542,20,21
2543,13,13
2544,14,12
2545,22,19
2546,22,22
2547,16,16
2548,18,18
2549,19,20
2550,17,17
2551,14,14
2552,24,4
2553,19,20
2554,3,3
2555,7,8
2556,22,22
2557,16,16
2558,15,16
2559,18,18
2560,13,11
2561,10,10
2562,14,14
2563,24,24
2564,23,24
2565,10,11
2566,9,9
2567,14,13
2568,11,12
2569,17,18
2570,7,7
2571,17,16
2572,12,12
2573,4,4
2574,17,17
2575,18,18
2576,24,24
2577,18,11
2578,16,16
2579,9,9
2580,17,13
2581,17,17
2582,9,9
2583,17,17
2584,20,4
2585,16,16
2586,15,14
2587,9,10
2588,18,15
2589,13,13
2590,8,7
2591,13,12
2592,19,19
2593,14,16
2594,18,17
2595,18,23
2596,17,17
2597,22,22
2598,13,13
2599,14,14
2600,18,14
2601,2,2
2602,10,8
2603,20,22
2604,18,18
2605,21,19
2606,15,15
2607,14,13
2608,12,11
2609,8,8
2610,22,20
2611,18,18
2612,19,22
2613,18,21
2614,10,10
2615,16,16
2616,20,20
2617,24,22
2618,17,16
2619,19,19
2620,12,11
2621,20,25
2622,16,18
2623,19,20
2624,20,20
2625,16,17
2626,15,14
2627,16,16
2628,14,15
2629,17,17
2630,19,18
2631,11,10
2632,7,6
2633,20,20
2634,20,21
2635,17,17
2636,10,10
2637,18,18
2638,12,12
2639,15,15
2640,11,11
2641,15,14
2642,22,24
2643,18,19
2644,21,24
2645,17,24
2646,22,21
2647,17,16
2648,18,20
2649,15,14
2650,17,21
2651,24,22
2652,17,19
2653,21,20
2654,17,14
2655,25,24
2656,11,8
2657,16,16
2658,9,10
2659,17,16
2660,17,18
2661,17,17
2662,13,16
2663,14,14
2664,24,24
2665,6,7
2666,3,2
2667,17,23
2668,14,14
2669,21,13
2670,19,16
2671,18,18
2672,7,7
2673,12,12
2674,20,25
2675,17,17
2676,15,14
2677,17,23
2678,5,5
2679,21,21
2680,16,16
2681,16,13
2682,20,21
2683,14,23
2684,10,9
2685,8,9
2686,2,2
2687,15,15
2688,5,6
2689,8,7
2690,10,10
2691,16,16
2692,14,14
2693,14,14
2694,7,7
2695,18,17
2696,4,5
2697,22,20
2698,19,19
2699,25,25
2700,28,24
2701,18,17
2702,20,19
2703,9,9
2704,23,23
2705,6,7
2706,5,6
2707,6,6
2708,14,14
2709,21,20
2710,25,20
2711,17,17
2712,16,16
2713,24,22
2714,17,15
2715,23,21
2716,5,6
2717,9,9
2718,8,8
2719,10,9
2720,20,14
2721,22,22
2722,20,20
2723,14,14
2724,19,19
2725,14,14
2726,16,17
2727,20,14
2728,3,6
2729,6,6
2730,20,22
2731,16,22
2732,8,8
2733,17,17
2734,21,21
2735,5,6
2736,19,19
2737,4,5
2738,8,11
2739,22,21
2740,4,4
2741,12,11
2742,12,11
2743,17,17
2744,13,14
2745,13,13
2746,6,6
2747,15,15
2748,11,12
2749,21,4
2750,24,24
2751,27,24
2752,20,20
2753,23,25
2754,24,21
2755,6,4
2756,4,6
2757,13,14
2758,24,20
2759,21,19
2760,7,8
2761,6,6
2762,21,22
2763,9,8
2764,14,13
2765,11,11
2766,21,21
2767,17,18
2768,19,20
2769,15,14
2770,18,18
2771,17,17
2772,19,19
2773,18,20
2774,13,12
2775,24,24
2776,22,22
2777,20,7
2778,14,19
2779,21,21
2780,20,19
2781,13,13
2782,19,20
2783,19,17
2784,19,4
2785,12,12
2786,16,20
2787,23,23
2788,15,14
2789,23,11
2790,15,15
2791,8,8
2792,11,11
2793,18,17
2794,21,21
2795,23,4
2796,23,20
2797,17,17
2798,6,6
2799,0,2
2800,17,17
2801,21,21
2802,13,14
2803,22,23
2804,11,11
2805,17,18
2806,14,14
2807,17,17
2808,13,13
2809,15,15
2810,15,10
2811,20,18
2812,22,22
2813,14,21
2814,16,16
2815,11,11
2816,3,5
2817,21,23
2818,17,16
2819,21,14
2820,15,15
2821,18,18
2822,12,12
2823,22,21
2824,24,24
2825,19,18
2826,12,13
2827,19,17
2828,16,16
2829,3,4
2830,16,17
2831,20,22
2832,14,14
2833,20,11
2834,19,19
2835,8,8
2836,17,18
2837,20,19
2838,18,18
2839,15,15
2840,19,17
2841,17,17
2842,14,14
2843,10,11
2844,22,23
2845,14,14
2846,20,15
2847,16,18
2848,16,16
2849,23,23
2850,17,15
2851,20,4
2852,22,22
2853,19,13
2854,22,22
2855,15,14
2856,21,21
2857,9,10
2858,19,21
2859,16,16
2860,18,11
2861,23,24
2862,10,10
2863,19,19
2864,17,16
2865,23,23
2866,23,22
2867,19,19
2868,19,18
2869,19,20
2870,10,11
2871,21,22
2872,5,5
2873,15,15
2874,1,2
2875,20,15
2876,14,15
2877,15,15
2878,15,15
2879,26,25
2880,8,7
2881,10,11
2882,19,19
2883,17,22
2884,8,8
2885,5,6
2886,14,14
2887,22,23
2888,24,24
2889,8,8
2890,16,14
2891,24,24
2892,21,20
2893,17,20
2894,19,18
2895,22,23
2896,16,17
2897,23,23
2898,13,14
2899,19,19
2900,20,25
2901,21,21
2902,25,24
2903,16,16
2904,1,3
2905,25,25
2906,21,22
2907,2,2
2908,18,18
2909,8,9
2910,17,16
2911,15,17
2912,5,6
2913,17,17
2914,17,16
2915,17,22
2916,25,24
2917,10,13
2918,16,16
2919,21,22
2920,22,23
2921,21,24
2922,17,20
2923,18,19
2924,11,11
2925,12,11
2926,26,24
2927,12,12
2928,20,20
2929,19,19
2930,6,6
2931,6,8
2932,18,21
2933,19,19
2934,24,23
2935,19,14
2936,19,15
2937,16,14
2938,16,18
2939,13,11
2940,17,18
2941,10,9
2942,17,20
2943,5,6
2944,15,15
2945,16,16
2946,22,20
2947,18,11
2948,9,8
2949,17,18
2950,19,14
2951,19,4
2952,21,21
2953,24,20
2954,13,13
2955,5,6
2956,17,17
2957,21,21
2958,17,24
2959,15,14
2960,22,22
2961,19,15
2962,5,5
2963,19,22
2964,19,20
2965,16,25
2966,17,17
2967,23,22
2968,18,18
2969,11,11
2970,18,18
2971,23,24
2972,7,6
2973,10,9
2974,19,20
2975,20,23
2976,17,18
2977,9,5
2978,23,22
2979,19,21
2980,24,23
2981,15,20
2982,10,9
2983,18,25
2984,14,14
2985,10,12
2986,17,16
2987,19,19
2988,17,16
2989,17,16
2990,20,20
2991,21,20
2992,14,14
2993,17,18
2994,2,3
2995,20,21
2996,10,12
2997,14,14
2998,20,19
2999,14,15
3000,18,18
3001,4,4
3002,21,20
3003,15,15
3004,16,12
3005,19,19
3006,11,11
3007,17,16
3008,13,13
3009,27,20
3010,9,9
3011,17,20
3012,21,20
3013,20,21
3014,16,16
3015,9,9
3016,16,16
3017,14,13
3018,19,20
3019,18,12
3020,25,24
3021,9,9
3022,16,20
3023,9,8
3024,15,17
3025,20,13
3026,9,9
3027,21,25
3028,24,25
3029,15,14
3030,9,9
3031,14,14
3032,25,25
3033,8,9
3034,19,20
3035,10,11
3036,15,19
3037,17,17
3038,9,11
3039,11,11
3040,11,11
3041,6,7
3042,23,23
3043,20,20
3044,12,12
3045,11,11
3046,17,18
3047,19,20
3048,22,21
3049,14,19
3050,19,19
3051,18,15
3052,20,19
3053,8,7
3054,12,12
3055,14,25
3056,14,13
3057,17,17
3058,20,22
3059,8,8
3060,17,17
3061,21,20
3062,15,15
3063,16,18
3064,18,20
3065,17,18
3066,14,20
3067,24,25
3068,18,17
3069,22,22
3070,18,20
3071,7,7
3072,24,25
3073,16,16
3074,6,6
3075,19,19
3076,17,20
3077,12,22
3078,20,19
3079,19,19
3080,17,10
3081,13,13
3082,19,25
3083,1,2
3084,20,15
3085,23,22
3086,21,21
3087,17,16
3088,18,19
3089,23,24
3090,18,18
3091,16,12
3092,11,9
3093,16,16
3094,25,24
3095,6,5
3096,7,7
3097,19,20
3098,24,20
3099,19,19
3100,7,8
3101,9,11
3102,10,12
3103,19,19
3104,5,6
3105,9,9
3106,16,4
3107,17,16
3108,6,7
3109,24,24
3110,21,14
3111,7,7
3112,19,19
3113,16,16
3114,17,23
3115,20,20
3116,11,11
3117,16,16
3118,17,16
3119,22,22
3120,17,16
3121,16,16
3122,19,20
3123,20,20
3124,7,7
3125,18,20
3126,14,13
3127,15,15
3128,11,9
3129,21,20
3130,12,12
3131,18,25
3132,16,18
3133,12,11
3134,14,14
3135,18,18
3136,5,6
3137,17,21
3138,15,15
3139,20,16
3140,13,12
3141,6,8
3142,19,18
3143,24,22
3144,14,14
3145,10,10
3146,13,13
3147,8,8
3148,27,24
3149,12,12
3150,15,16
3151,14,14
3152,17,18
3153,13,13
3154,14,13
3155,4,4
3156,25,24
3157,10,10
3158,17,20
3159,20,13
3160,4,3
3161,6,6
3162,19,20
3163,14,13
3164,23,24
3165,17,17
3166,15,15
3167,8,8
3168,19,25
3169,16,16
3170,18,21
3171,16,17
3172,19,19
3173,14,14
3174,23,23
3175,17,17
3176,15,15
3177,10,10
3178,13,13
3179,14,14
3180,20,16
3181,13,13
3182,13,13
3183,11,11
3184,24,25
3185,8,11
3186,6,6
3187,16,18
3188,23,23
3189,10,10
3190,16,20
3191,18,23
3192,17,20
3193,24,24
3194,17,18
3195,23,24
3196,24,23
3197,23,22
3198,14,14
3199,5,5
3200,10,9
3201,17,18
3202,20,20
3203,21,19
3204,12,12
3205,7,7
3206,11,13
3207,20,21
3208,5,8
3209,15,14
3210,14,14
3211,17,16
3212,17,25
3213,18,21
3214,14,15
3215,22,20
3216,19,10
3217,14,13
3218,21,20
3219,18,17
3220,16,15
3221,20,14
3222,17,17
3223,14,20
3224,21,21
3225,25,24
3226,24,24
3227,1,2
3228,19,19
3229,10,11
3230,13,13
3231,13,13
3232,18,18
3233,24,25
3234,15,15
3235,11,11
3236,15,15
3237,11,11
3238,13,12
3239,23,24
3240,17,18
3241,6,7
3242,13,13
3243,8,8
3244,17,17
3245,8,9
3246,19,19
3247,23,24
3248,20,20
3249,24,18
3250,18,18
3251,6,6
3252,9,8
3253,19,20
3254,15,16
3255,18,18
3256,19,19
3257,21,22
3258,11,11
3259,18,15
3260,21,22
3261,11,11
3262,17,15
3263,11,12
3264,17,23
3265,27,25
3266,15,15
3267,21,22
3268,22,20
3269,14,14
3270,12,11
3271,14,12
3272,24,21
3273,20,11
3274,25,25
3275,18,22
3276,17,17
3277,20,14
3278,16,14
3279,11,12
3280,12,13
3281,12,21
3282,6,6
3283,24,23
3284,8,10
3285,16,18
3286,20,20
3287,16,15
3288,20,20
3289,23,22
3290,15,20
3291,10,11
3292,12,12
3293,18,18
3294,20,20
3295,19,19
3296,19,24
3297,18,22
3298,18,22
3299,17,18
3300,4,4
3301,14,13
3302,19,20
3303,22,22
3304,18,18
3305,23,23
3306,17,17
3307,15,13
3308,17,15
3309,19,21
3310,0,2
3311,18,18
3312,16,15
3313,23,23
3314,14,14
3315,11,11
3316,10,10
3317,13,9
3318,14,9
3319,16,17
3320,23,23
3321,21,21
3322,16,15
3323,8,7
3324,16,15
3325,17,17
3326,24,25
3327,18,17
3328,14,14
3329,25,25
3330,18,18
3331,17,20
3332,19,20
3333,15,16
3334,19,19
3335,17,20
3336,28,25
3337,17,17
3338,17,18
3339,16,16
3340,16,20
3341,20,22
3342,17,15
3343,16,17
3344,12,12
3345,24,24
3346,20,15
3347,13,13
3348,15,15
3349,11,12
3350,19,21
3351,13,13
3352,21,19
3353,14,13
3354,4,4
3355,16,16
3356,14,13
3357,7,8
3358,16,17
3359,11,12
3360,5,5
3361,28,20
3362,5,5
3363,12,12
3364,11,9
3365,16,16
3366,23,22
3367,22,23
3368,16,16
3369,14,13
3370,13,13
3371,7,7
3372,22,21
3373,17,17
3374,16,17
3375,14,13
3376,6,6
3377,14,14
3378,19,20
3379,6,5
3380,16,15
3381,9,9
3382,24,24
3383,17,17
3384,18,21
3385,9,9
3386,12,13
3387,5,5
3388,13,13
3389,17,18
3390,15,18
3391,12,13
3392,14,15
3393,4,4
3394,26,24
3395,17,20
3396,8,7
3397,24,25
3398,17,17
3399,16,13
3400,4,5
3401,16,16
3402,20,21
3403,17,17
3404,13,17
3405,17,17
3406,22,22
3407,19,19
3408,21,21
3409,22,19
3410,10,9
3411,12,13
3412,20,24
3413,16,16
3414,21,20
3415,18,18
3416,13,12
3417,19,21
3418,15,21
3419,24,23
3420,24,24
3421,21,19
3422,14,14
3423,12,11
3424,17,20
3425,17,17
3426,13,13
3427,21,21
3428,17,17
3429,15,14
3430,15,15
3431,17,18
3432,15,14
3433,15,15
3434,20,20
3435,18,17
3436,13,13
3437,14,15
3438,23,23
3439,21,21
3440,13,11
3441,25,25
3442,8,7
3443,16,5
3444,17,17
3445,19,19
3446,2,2
3447,14,14
3448,2,3
3449,16,20
3450,10,10
3451,18,19
3452,17,23
3453,7,7
3454,19,18
3455,21,15
3456,17,17
3457,17,10
3458,17,20
3459,21,20
3460,12,12
3461,22,22
3462,17,25
3463,16,13
3464,21,20
3465,7,6
3466,18,20
3467,15,16
3468,21,20
3469,21,21
3470,20,20
3471,15,14
3472,24,20
3473,21,21
3474,13,13
3475,4,3
3476,20,19
3477,11,11
3478,16,15
3479,19,18
3480,13,13
3481,7,7
3482,17,17
3483,17,16
3484,20,24
3485,20,20
3486,24,24
3487,12,11
3488,25,20
3489,2,3
3490,22,20
3491,19,19
3492,13,14
3493,17,16
3494,10,8
3495,23,24
3496,23,22
3497,5,5
3498,11,11
3499,13,14
3500,19,19
3501,16,15
3502,25,18
3503,20,23
3504,11,10
3505,19,16
3506,11,11
3507,14,14
3508,15,14
3509,21,21
3510,10,10
3511,16,20
3512,9,9
3513,19,14
3514,13,14
3515,19,20
3516,15,14
3517,20,21
3518,17,16
3519,26,24
3520,20,24
3521,11,11
3522,20,21
3523,22,22
3524,16,19
3525,11,12
3526,16,10
3527,15,16
3528,14,13
3529,16,17
3530,6,6
3531,21,21
3532,15,15
3533,22,22
3534,19,16
3535,19,21
3536,10,10
3537,5,5
3538,12,12
3539,12,12
3540,21,22
3541,15,15
3542,14,12
3543,21,21
3544,21,19
3545,18,18
3546,25,24
3547,21,21
3548,22,22
3549,17,20
3550,21,22
3551,7,6
3552,1,3
3553,18,14
3554,19,17
3555,20,22
3556,14,14
3557,15,15
3558,14,13
3559,15,15
3560,8,8
3561,13,13
3562,21,21
3563,18,18
3564,20,20
3565,17,20
3566,11,10
3567,16,16
3568,4,5
3569,18,18
3570,7,9
3571,1,2
3572,19,18
3573,20,21
3574,18,17
3575,3,2
3576,15,15
3577,17,13
3578,12,12
3579,15,15
3580,17,16
3581,17,17
3582,17,18
3583,16,14
3584,13,13
3585,14,14
3586,21,21
3587,18,18
3588,12,12
3589,17,17
3590,19,12
3591,18,18
3592,19,9
3593,23,23
3594,18,15
3595,19,20
3596,13,13
3597,15,21
3598,16,16
3599,12,13
3600,7,6
3601,2,2
3602,24,22
3603,14,13
3604,20,20
3605,6,6
3606,18,20
3607,25,25
3608,18,19
3609,12,11
3610,15,21
3611,23,23
3612,22,22
3613,18,15
3614,11,8
3615,14,4
3616,17,20
3617,15,18
3618,25,24
3619,24,25
3620,24,24
3621,7,7
3622,2,2
3623,24,23
3624,18,16
3625,13,13
3626,17,20
3627,6,6
3628,17,17
3629,23,22
3630,17,17
3631,23,23
3632,16,22
3633,18,17
3634,14,15
3635,26,25
3636,18,21
3637,5,6
3638,13,13
3639,18,14
3640,7,8
3641,14,16
3642,12,11
3643,7,6
3644,14,14
3645,15,15
3646,14,15
3647,20,17
3648,20,21
3649,18,18
3650,19,18
3651,22,21
3652,17,19
3653,16,16
3654,7,7
3655,22,24
3656,19,19
3657,19,20
3658,21,22
3659,5,6
3660,19,20
3661,15,15
3662,19,19
3663,21,21
3664,25,25
3665,27,15
3666,16,24
3667,19,17
3668,14,15
3669,23,21
3670,18,18
3671,17,16
3672,20,20
3673,10,10
3674,6,6
3675,18,17
3676,3,3
3677,21,20
3678,20,20
3679,17,16
3680,10,12
3681,19,18
3682,8,7
3683,13,13
3684,17,18
3685,18,18
3686,23,24
3687,12,11
3688,13,14
3689,17,20
3690,6,5
3691,17,17
3692,15,16
3693,6,4
3694,17,19
3695,20,19
3696,11,11
3697,16,17
3698,8,8
3699,19,19
3700,22,23
3701,19,20
3702,17,18
3703,17,18
3704,5,6
3705,15,15
3706,22,22
3707,16,16
3708,10,10
3709,14,14
3710,7,6
3711,7,8
3712,12,11
3713,22,23
3714,12,12
3715,23,18
3716,18,20
3717,18,23
3718,18,17
3719,17,17
3720,21,21
3721,16,16
3722,17,18
3723,20,19
3724,12,11
3725,24,24
3726,16,17
3727,20,20
3728,12,23
3729,22,20
3730,20,23
3731,17,17
3732,20,20
3733,16,16
3734,6,11
3735,10,11
3736,18,3
3737,22,22
3738,22,23
3739,19,15
3740,20,21
3741,5,5
3742,19,16
3743,15,15
3744,15,15
3745,18,21
3746,19,20
3747,22,22
3748,7,7
3749,20,15
3750,21,22
3751,13,13
3752,28,25
3753,9,9
3754,23,23
3755,8,9
3756,23,23
3757,19,19
3758,20,20
3759,16,15
3760,24,24
3761,4,4
3762,10,9
3763,20,20
3764,23,21
3765,15,14
3766,17,21
3767,15,15
3768,17,4
3769,8,9
3770,19,14
3771,18,18
3772,12,13
3773,16,15
3774,17,18
3775,17,14
3776,26,24
3777,17,21
3778,17,17
3779,20,21
3780,24,24
3781,20,21
3782,18,18
3783,18,18
3784,21,21
3785,16,16
3786,10,10
3787,6,8
3788,17,17
3789,25,25
3790,18,18
3791,21,22
3792,3,4
3793,12,11
3794,1,2
3795,7,6
3796,20,22
3797,15,15
3798,16,15
3799,20,20
3800,24,19
3801,15,15
3802,20,23
3803,20,20
3804,4,4
3805,11,12
3806,13,14
3807,19,19
3808,12,10
3809,15,14
3810,9,9
3811,8,8
3812,18,19
3813,15,16
3814,12,11
3815,22,16
3816,4,5
3817,15,16
3818,18,20
3819,17,17
3820,19,21
3821,4,4
3822,24,24
3823,22,22
3824,17,17
3825,19,21
3826,20,19
3827,23,23
3828,21,20
3829,11,11
3830,22,22
3831,22,21
3832,16,14
3833,21,21
3834,18,13
3835,13,13
3836,19,18
3837,22,22
3838,15,21
3839,7,6
3840,21,22
3841,17,17
3842,21,21
3843,20,20
3844,24,22
3845,19,14
3846,17,20
3847,20,20
3848,6,7
3849,14,14
3850,23,24
3851,14,15
3852,22,21
3853,9,10
3854,16,17
3855,17,20
3856,15,14
3857,16,22
3858,19,19
3859,23,22
3860,20,20
3861,18,18
3862,7,7
3863,17,13
3864,12,11
3865,19,19
3866,22,21
3867,18,17
3868,15,16
3869,18,18
3870,10,8
3871,21,21
3872,21,22
3873,12,13
3874,25,25
3875,17,17
3876,17,17
3877,19,19
3878,17,20
3879,18,10
3880,18,19
3881,16,20
3882,19,20
3883,10,11
3884,17,17
3885,18,19
3886,19,19
3887,21,20
3888,14,14
3889,20,20
3890,17,16
3891,20,16
3892,22,20
3893,16,14
3894,21,22
3895,18,20
3896,13,13
3897,17,17
3898,7,8
3899,12,12
3900,23,22
3901,20,20
3902,5,6
3903,14,14
3904,18,19
3905,20,20
3906,15,15
3907,17,17
3908,8,7
3909,11,11
3910,19,25
3911,13,12
3912,19,21
3913,10,7
3914,19,19
3915,14,13
3916,20,21
3917,24,24
3918,20,21
3919,19,19
3920,13,13
3921,15,21
3922,24,24
3923,18,21
3924,12,13
3925,22,25
3926,12,12
3927,8,7
3928,14,14
3929,11,12
3930,10,10
3931,4,3
3932,25,25
3933,15,14
3934,11,11
3935,18,18
3936,12,14
3937,11,11
3938,15,15
3939,26,24
3940,8,8
3941,18,18
3942,12,12
3943,5,6
3944,21,21
3945,21,24
3946,11,11
3947,23,24
3948,19,19
3949,15,15
3950,25,24
3951,12,12
3952,17,17
3953,18,19
3954,19,21
3955,15,15
3956,23,24
3957,24,24
3958,21,22
3959,18,19
3960,20,22
3961,17,20
3962,15,24
3963,6,6
3964,22,22
3965,16,17
3966,20,19
3967,24,24
3968,24,25
3969,21,18
3970,14,14
3971,23,24
3972,15,14
3973,15,14
3974,19,21
3975,12,12
3976,23,23
3977,19,19
3978,16,16
3979,16,14
3980,23,24
3981,14,11
3982,16,20
3983,17,17
3984,21,21
3985,17,16
3986,10,9
3987,21,14
3988,22,24
3989,5,6
3990,19,19
3991,13,15
3992,12,12
3993,15,16
3994,6,7
3995,12,12
3996,11,11
3997,9,9
3998,12,12
3999,17,18
4000,16,16
4001,20,13
4002,4,5
4003,18,20
4004,13,13
4005,19,20
4006,19,14
4007,20,20
4008,18,18
4009,18,18
4010,15,14
4011,6,7
4012,16,16
4013,17,17
4014,16,16
4015,23,22
4016,16,16
4017,21,21
4018,22,22
4019,15,16
4020,18,20
4021,17,20
4022,20,21
4023,24,24
4024,19,19
4025,12,12
4026,20,20
4027,15,15
4028,21,21
4029,20,20
4030,22,22
4031,15,14
4032,19,19
4033,13,14
4034,7,7
4035,21,21
4036,16,16
4037,19,19
4038,20,20
4039,20,19
4040,17,17
4041,16,18
4042,19,19
4043,18,24
4044,20,20
4045,20,12
4046,13,12
4047,22,22
4048,20,20
4049,17,18
4050,19,18
4051,16,14
4052,16,16
4053,10,10
4054,17,18
4055,21,20
4056,7,8
4057,19,17
4058,20,22
4059,11,11
4060,16,17
4061,2,2
4062,18,11
4063,24,24
4064,22,22
4065,16,15
4066,23,24
4067,22,23
4068,19,20
4069,23,23
4070,12,13
4071,16,20
4072,7,8
4073,3,4
4074,19,18
4075,22,25
4076,12,12
4077,20,22
4078,17,17
4079,17,21
4080,21,20
4081,17,17
4082,20,21
4083,11,11
4084,23,24
4085,18,17
4086,8,7
4087,16,16
4088,4,6
4089,16,16
4090,16,16
4091,16,20
4092,18,21
4093,22,7
4094,13,14
4095,17,16
4096,17,13
4097,19,21
4098,18,15
4099,14,14
4100,13,12
4101,11,11
4102,6,7
4103,21,21
4104,23,24
4105,13,13
4106,22,23
4107,19,19
4108,15,20
4109,19,20
4110,9,8
4111,21,25
4112,21,21
4113,13,4
4114,8,8
4115,21,21
4116,17,21
4117,14,16
4118,18,18
4119,19,20
4120,16,17
4121,18,18
4122,18,4
4123,17,17
4124,16,17
4125,24,23
4126,19,12
4127,22,24
4128,16,22
4129,15,15
4130,23,23
4131,17,17
4132,14,21
4133,22,23
4134,22,23
4135,13,12
4136,17,17
4137,19,19
4138,2,2
4139,17,17
4140,19,20
4141,19,19
4142,23,22
4143,18,17
4144,17,17
4145,16,15
4146,19,19
4147,3,5
4148,23,23
4149,6,6
4150,17,16
4151,20,12
4152,24,25
4153,18,17
4154,16,16
4155,17,17
4156,5,7
4157,18,21
4158,13,13
4159,23,23
4160,20,19
4161,9,9
4162,10,10
4163,18,16
4164,19,20
4165,7,7
4166,25,24
4167,18,18
4168,6,6
4169,14,20
4170,11,11
4171,20,22
4172,5,6
4173,16,25
4174,14,13
4175,25,25
4176,17,17
4177,22,14
4178,21,22
4179,24,23
4180,23,20
4181,15,13
4182,16,17
4183,26,24
4184,14,14
4185,25,25
4186,12,12
4187,19,25
4188,14,14
4189,23,22
4190,18,18
4191,22,20
4192,15,13
4193,13,12
4194,20,22
4195,8,8
4196,18,18
4197,13,12
4198,8,8
4199,15,15
4200,16,20
4201,15,15
4202,17,17
4203,19,19
4204,22,13
4205,19,19
4206,9,14
4207,19,19
4208,24,25
4209,23,23
4210,16,16
4211,25,25
4212,18,16
4213,25,24
4214,21,21
4215,9,9
4216,19,18
4217,14,20
4218,8,8
4219,8,8
4220,17,14
4221,25,24
4222,20,20
4223,24,23
4224,17,16
4225,16,16
4226,14,14
4227,14,13
4228,18,13
4229,18,16
4230,22,21
4231,15,15
4232,4,5
4233,12,12
4234,19,11
4235,7,7
4236,12,12
4237,6,8
4238,14,14
4239,27,25
4240,16,23
4241,21,12
4242,19,21
4243,15,14
4244,20,20
4245,15,15
4246,24,22
4247,15,15
4248,13,13
4249,23,18
4250,22,20
4251,14,15
4252,14,14
4253,7,7
4254,21,14
4255,24,24
4256,23,22
4257,10,10
4258,14,15
4259,14,16
4260,11,11
4261,22,23
4262,9,8
4263,7,7
4264,12,11
4265,20,20
4266,2,2
4267,9,9
4268,18,20
4269,16,17
4270,21,20
4271,19,19
4272,11,11
4273,19,18
4274,20,20
4275,4,5
4276,14,14
4277,11,12
4278,19,20
4279,12,11
4280,20,17
4281,12,14
4282,24,24
4283,17,16
4284,14,14
4285,15,14
4286,11,10
4287,31,18
4288,21,22
4289,26,24
4290,17,20
4291,21,21
4292,21,20
4293,15,24
4294,20,22
4295,6,6
4296,17,17
4297,14,20
4298,22,22
4299,17,17
4300,17,18
4301,26,25
4302,10,11
4303,24,23
4304,7,7
4305,18,25
4306,24,25
4307,19,19
4308,17,17
4309,23,20
4310,18,19
4311,13,11
4312,18,21
4313,18,20
4314,19,18
4315,17,17
4316,16,16
4317,15,15
4318,22,22
4319,25,25
4320,25,25
4321,18,19
4322,8,8
4323,18,18
4324,24,24
4325,6,6
4326,5,5
4327,8,8
4328,20,25
4329,17,16
4330,17,17
4331,16,13
4332,16,15
4333,14,14
4334,13,12
4335,16,16
4336,20,21
4337,7,6
4338,18,17
4339,19,20
4340,10,10
4341,17,16
4342,28,25
4343,19,17
4344,18,22
4345,19,19
4346,4,4
4347,14,16
4348,14,14
4349,4,5
4350,18,21
4351,8,8
4352,4,4
4353,2,2
4354,6,6
4355,19,19
4356,18,18
4357,19,19
4358,21,22
4359,13,13
4360,17,17
4361,18,24
4362,16,16
4363,18,18
4364,22,22
4365,13,13
4366,17,17
4367,21,22
4368,13,13
4369,13,12
4370,23,22
4371,16,16
4372,22,23
4373,20,18
4374,15,13
4375,10,10
4376,17,18
4377,16,14
4378,12,12
4379,21,22
4380,14,13
4381,17,16
4382,25,25
4383,24,25
4384,15,14
4385,20,20
4386,20,15
4387,23,23
4388,11,11
4389,24,24
4390,22,18
4391,21,21
4392,15,15
4393,15,14
4394,13,12
4395,23,23
4396,18,22
4397,17,17
4398,16,18
4399,20,20
4400,6,7
4401,14,13
4402,17,16
4403,3,3
4404,20,24
4405,20,14
4406,17,18
4407,15,15
4408,15,16
4409,18,18
4410,15,15
4411,23,24
4412,7,6
4413,14,14
4414,17,17
4415,7,7
4416,22,22
4417,17,19
4418,16,17
4419,20,17
4420,13,19
4421,20,21
4422,15,15
4423,15,15
4424,19,18
4425,16,20
4426,14,14
4427,18,18
4428,12,11
4429,9,9
4430,18,23
4431,20,25
4432,12,12
4433,16,16
4434,18,17
4435,15,16
4436,16,16
4437,19,20
4438,15,15
4439,16,16
4440,18,18
4441,12,12
4442,17,20
4443,15,15
4444,19,19
4445,15,15
4446,13,13
4447,17,16
4448,11,11
4449,16,16
4450,25,25
4451,19,10
4452,16,17
4453,26,25
4454,11,11
4455,19,20
4456,22,22
4457,15,16
4458,15,14
4459,26,24
4460,9,8
4461,16,19
4462,18,18
4463,24,23
4464,6,7
4465,20,20
4466,15,16
4467,19,20
4468,25,24
4469,18,18
4470,14,14
4471,20,20
4472,18,18
4473,21,20
4474,9,9
4475,17,20
4476,19,14
4477,13,12
4478,13,13
4479,15,15
4480,11,11
4481,25,24
4482,22,21
4483,9,8
4484,20,21
4485,9,9
4486,21,21
4487,9,9
4488,7,8
4489,18,17
4490,17,17
4491,19,23
4492,18,19
4493,19,19
4494,18,18
4495,18,25
4496,17,16
4497,20,20
4498,10,9
4499,9,9
4500,12,12
4501,21,21
4502,14,14
4503,17,17
4504,20,15
4505,21,22
4506,18,17
4507,17,18
4508,13,13
4509,15,25
4510,25,25
4511,17,18
4512,24,25
4513,21,20
4514,15,15
4515,20,24
4516,18,17
4517,13,13
4518,13,13
4519,20,20
4520,13,20
4521,23,24
4522,14,13
4523,18,17
4524,15,15
4525,18,18
4526,24,24
4527,21,14
4528,23,22
4529,17,16
4530,20,15
4531,17,16
4532,13,13
4533,10,11
4534,7,7
4535,19,18
4536,17,17
4537,21,21
4538,26,24
4539,15,17
4540,18,20
4541,2,2
4542,17,16
4543,6,7
4544,9,10
4545,24,25
4546,20,20
4547,11,11
4548,19,19
4549,19,19
4550,13,13
4551,18,19
4552,18,19
4553,20,19
4554,22,15
4555,16,16
4556,23,25
4557,24,24
4558,13,14
4559,24,23
4560,14,13
4561,8,10
4562,18,18
4563,23,24
4564,25,25
4565,17,16
4566,15,16
4567,24,24
4568,8,8
4569,21,20
4570,11,14
4571,22,20
4572,20,21
4573,23,21
4574,26,25
4575,18,20
4576,11,11
4577,16,17
4578,10,10
4579,14,14
4580,10,10
4581,16,20
4582,9,8
4583,14,14
4584,17,18
4585,21,21
4586,19,19
4587,16,4
4588,20,23
4589,13,13
4590,18,21
4591,19,20
4592,11,11
4593,24,24
4594,17,17
4595,5,6
4596,24,24
4597,16,15
4598,7,7
4599,22,22
4600,3,3
4601,18,11
4602,15,23
4603,15,14
4604,19,20
4605,17,17
4606,18,18
4607,9,10
4608,16,16
4609,17,17
4610,23,22
4611,18,17
4612,23,23
4613,4,5
4614,23,22
4615,10,9
4616,17,17
4617,11,11
4618,12,13
4619,23,24
4620,22,22
4621,19,20
4622,15,15
4623,22,3
4624,23,22
4625,12,22
4626,21,22
4627,16,16
4628,12,12
4629,19,19
4630,17,17
4631,20,19
4632,13,12
4633,16,16
4634,15,13
4635,14,14
4636,7,6
4637,24,24
4638,19,20
4639,17,23
4640,10,10
4641,14,14
4642,10,12
4643,19,22
4644,16,23
4645,25,24
4646,13,13
4647,6,6
4648,12,12
4649,15,20
4650,17,17
4651,16,16
4652,25,25
4653,24,23
4654,17,17
4655,23,24
4656,24,24
4657,18,15
4658,17,25
4659,26,24
4660,21,22
4661,14,19
4662,17,16
4663,15,15
4664,11,11
4665,18,20
4666,19,18
4667,10,9
4668,20,20
4669,16,16
4670,21,20
4671,8,10
4672,17,18
4673,21,20
4674,19,19
4675,17,16
4676,17,17
4677,14,20
4678,4,5
4679,11,11
4680,21,20
4681,7,7
4682,23,21
4683,24,24
4684,19,12
4685,16,16
4686,22,21
4687,20,19
4688,16,16
4689,17,18
4690,18,17
4691,21,20
4692,10,8
4693,15,18
4694,19,21
4695,9,9
4696,14,21
4697,10,9
4698,6,5
4699,7,8
4700,18,16
4701,8,8
4702,22,21
4703,12,11
4704,24,25
4705,17,17
4706,14,14
4707,20,12
4708,22,18
4709,9,9
4710,1,3
4711,9,9
4712,20,20
4713,23,23
4714,18,18
4715,15,15
4716,5,6
4717,16,16
4718,20,20
4719,24,20
4720,17,21
4721,13,13
4722,14,19
4723,12,13
4724,24,24
4725,17,17
4726,18,18
4727,22,24
4728,20,20
4729,19,19
4730,18,19
4731,23,24
4732,17,17
4733,19,24
4734,8,9
4735,7,6
4736,11,11
4737,22,22
4738,6,5
4739,19,18
4740,26,24
4741,23,20
4742,21,22
4743,18,18
4744,5,4
4745,12,13
4746,8,8
4747,18,18
4748,12,11
4749,10,11
4750,5,5
4751,19,4
4752,16,16
4753,14,14
4754,9,11
4755,14,13
4756,25,24
4757,18,12
4758,14,15
4759,8,7
4760,18,18
4761,9,8
4762,17,17
4763,22,22
4764,9,9
4765,13,12
4766,19,19
4767,15,15
4768,13,14
4769,12,12
4770,13,12
4771,18,18
4772,19,19
4773,18,18
4774,21,21
4775,11,11
4776,19,19
4777,10,11
4778,18,20
4779,23,23
4780,21,21
4781,18,18
4782,17,17
4783,4,3
4784,12,12
4785,11,12
4786,14,15
4787,20,19
4788,21,21
4789,17,24
4790,17,20
4791,17,16
4792,17,17
4793,21,20
4794,20,21
4795,21,21
4796,21,21
4797,6,6
4798,14,15
4799,20,21
4800,12,13
4801,10,10
4802,17,17
4803,19,22
4804,13,14
4805,14,14
4806,19,19
4807,19,20
4808,6,6
4809,16,11
4810,11,20
4811,15,14
4812,20,18
4813,5,4
4814,23,14
4815,20,18
4816,21,21
4817,8,9
4818,20,4
4819,22,21
4820,21,22
4821,8,7
4822,2,2
4823,6,6
4824,22,21
4825,21,21
4826,10,10
4827,23,24
4828,24,24
4829,19,18
4830,4,4
4831,16,16
4832,20,19
4833,10,11
4834,27,25
4835,10,10
4836,18,18
4837,17,17
4838,14,15
4839,11,11
4840,21,20
4841,13,18
4842,20,11
4843,23,23
4844,23,20
4845,24,25
4846,14,14
4847,14,15
4848,22,20
4849,10,11
4850,18,18
4851,18,19
4852,21,22
4853,18,19
4854,15,4
4855,17,17
4856,17,16
4857,20,20
4858,19,18
4859,7,7
4860,21,22
4861,16,14
4862,23,23
4863,12,14
4864,18,17
4865,8,7
4866,15,16
4867,14,15
4868,20,21
4869,26,19
4870,22,22
4871,7,7
4872,13,13
4873,19,18
4874,19,19
4875,24,23
4876,17,17
4877,14,13
4878,17,17
4879,19,5
4880,23,22
4881,15,22
4882,21,22
4883,16,14
4884,15,15
4885,22,24
4886,23,22
4887,20,6
4888,10,9
4889,8,7
4890,18,18
4891,17,17
4892,14,15
4893,16,22
4894,20,18
4895,12,13
4896,18,18
4897,17,17
4898,16,15
4899,22,22
4900,20,24
4901,20,19
4902,21,20
4903,15,21
4904,21,22
4905,17,20
4906,24,24
4907,13,13
4908,15,16
4909,23,23
4910,17,17
4911,19,15
4912,11,11
4913,19,18
4914,21,21
4915,17,17
4916,22,24
4917,11,8
4918,13,12
4919,16,16
4920,17,17
4921,13,12
4922,21,19
4923,13,13
4924,17,18
4925,23,23
4926,17,20
4927,18,17
4928,16,16
4929,23,22
4930,20,20
4931,16,16
4932,15,15
4933,20,21
4934,22,21
4935,12,11
4936,17,20
4937,12,13
4938,11,11
4939,16,23
4940,16,16
4941,15,14
4942,19,13
4943,21,22
4944,23,23
4945,16,22
4946,11,11
4947,20,20
4948,14,14
4949,18,18
4950,16,18
4951,4,4
4952,3,4
4953,16,16
4954,17,18
4955,11,11
4956,20,21
4957,19,21
4958,3,5
4959,10,9
4960,23,24
4961,19,19
4962,2,3
4963,9,9
4964,4,4
4965,20,21
4966,23,22
4967,24,20
4968,23,23
4969,17,20
4970,18,13
4971,24,22
4972,18,20
4973,16,16
4974,19,13
4975,22,21
4976,17,22
4977,17,17
4978,15,13
4979,11,10
4980,19,19
4981,13,13
4982,21,24
4983,15,14
4984,3,4
4985,17,17
4986,16,18
4987,20,13
4988,17,19
4989,17,17
4990,21,21
4991,20,20
4992,17,17
4993,18,18
4994,15,14
4995,20,21
4996,19,21
4997,10,11
4998,9,9
4999,18,20
5000,13,13
5001,17,17
5002,12,11
5003,15,14
5004,14,14
5005,27,25
5006,18,18
5007,19,19
5008,19,19
5009,11,11
5010,25,24
5011,14,12
5012,20,18
5013,18,17
5014,13,15
5015,16,17
5016,17,17
5017,16,17
5018,18,20
5019,9,7
5020,12,12
5021,8,8
5022,17,17
5023,17,17
5024,16,14
5025,17,17
5026,18,20
5027,21,12
5028,4,4
5029,17,17
5030,15,16
5031,23,24
5032,20,21
5033,19,17
5034,19,19
5035,24,24
5036,10,11
5037,17,14
5038,13,12
5039,11,10
5040,24,24
5041,7,7
5042,5,4
5043,20,20
5044,22,23
5045,18,19
5046,17,16
5047,18,18
5048,19,18
5049,16,17
5050,17,18
5051,4,5
5052,11,11
5053,18,11
5054,20,11
5055,17,17
5056,19,18
5057,19,25
5058,9,9
5059,17,17
5060,13,12
5061,20,20
5062,17,16
5063,16,17
5064,20,20
5065,14,13
5066,7,7
5067,18,18
5068,21,22
5069,19,17
5070,16,17
5071,19,21
5072,21,7
5073,24,24
5074,20,20
5075,28,25
5076,8,8
5077,21,21
5078,18,11
5079,14,14
5080,5,4
5081,20,24
5082,19,20
5083,10,11
5084,21,22
5085,21,22
5086,21,20
5087,18,18
5088,11,12
5089,18,20
5090,15,15
5091,15,15
5092,15,15
5093,18,18
5094,20,20
5095,15,15
5096,22,14
5097,19,20
5098,23,24
5099,12,12
5100,20,20
5101,20,20
5102,13,13
5103,23,22
5104,13,13
5105,14,14
5106,13,13
5107,20,21
5108,13,3
5109,16,16
5110,16,16
5111,5,5
5112,21,19
5113,3,4
5114,21,21
5115,22,19
5116,18,18
5117,21,19
5118,21,25
5119,18,18
5120,21,19
5121,22,14
5122,18,21
5123,16,16
5124,18,18
5125,17,17
5126,20,13
5127,6,5
5128,13,13
5129,21,24
5130,16,11
5131,18,22
5132,16,17
5133,5,6
5134,12,12
5135,17,17
5136,11,13
5137,18,18
5138,16,11
5139,13,15
5140,25,23
5141,19,20
5142,17,22
5143,13,14
5144,24,22
5145,12,12
5146,11,8
5147,8,9
5148,17,23
5149,19,19
5150,11,11
5151,6,6
5152,24,24
5153,21,21
5154,6,7
5155,17,17
5156,18,17
5157,17,18
5158,19,13
5159,5,5
5160,16,18
5161,10,11
5162,19,15
5163,10,12
5164,14,14
5165,13,13
5166,16,14
5167,22,19
5168,18,19
5169,12,11
5170,23,24
5171,14,15
5172,14,14
5173,16,16
5174,2,3
5175,19,20
5176,14,13
5177,13,13
5178,19,18
5179,20,14
5180,6,6
5181,9,8
5182,16,16
5183,3,7
5184,14,14
5185,19,21
5186,13,12
5187,18,20
5188,17,17
5189,16,11
5190,20,20
5191,24,23
5192,16,18
5193,5,4
5194,19,19
5195,25,25
5196,21,22
5197,19,20
5198,10,9
5199,13,13
5200,25,24
5201,21,22
5202,14,15
5203,11,11
5204,14,15
5205,22,23
5206,20,21
5207,15,20
5208,23,23
5209,21,23
5210,16,16
5211,21,21
5212,15,16
5213,18,24
5214,15,16
5215,20,22
5216,17,20
5217,21,20
5218,25,25
5219,16,16
5220,21,21
5221,20,19
5222,22,24
5223,6,6
5224,4,6
5225,16,15
5226,14,13
5227,4,5
5228,23,23
5229,4,6
5230,23,23
5231,5,5
5232,16,16
5233,16,16
5234,15,16
5235,21,22
5236,17,17
5237,13,15
5238,18,17
5239,3,3
5240,15,16
5241,17,21
5242,21,20
5243,8,9
5244,19,11
5245,17,17
5246,24,24
5247,18,20
5248,14,13
5249,21,20
5250,5,5
5251,15,16
5252,18,25
5253,5,5
5254,15,17
5255,12,12
5256,19,19
5257,23,25
5258,12,13
5259,21,22
5260,14,14
5261,15,15
5262,7,7
5263,15,20
5264,22,21
5265,10,11
5266,2,2
5267,18,18
5268,19,20
5269,17,17
5270,13,13
5271,23,24
5272,14,14
5273,3,5
5274,23,23
5275,17,16
5276,8,7
5277,21,21
5278,21,11
5279,19,19
5280,21,22
5281,23,24
5282,19,19
5283,20,20
5284,22,21
5285,16,16
5286,18,20
5287,10,10
5288,18,19
5289,4,4
5290,20,19
5291,15,17
5292,5,5
5293,17,20
5294,17,17
5295,15,16
5296,19,19
5297,22,23
5298,23,23
5299,19,19
5300,17,18
5301,25,24
5302,15,16
5303,10,9
5304,18,18
5305,15,15
5306,12,11
5307,18,19
5308,20,16
5309,14,14
5310,17,17
5311,8,9
5312,19,18
5313,12,15
5314,16,21
5315,1,2
5316,19,20
5317,22,23
5318,19,20
5319,18,20
5320,21,21
5321,19,19
5322,5,5
5323,21,21
5324,14,11
5325,12,13
5326,24,24
5327,25,24
5328,21,21
5329,22,22
5330,15,16
5331,17,19
5332,24,23
5333,22,23
5334,9,9
5335,23,22
5336,22,22
5337,19,18
5338,15,17
5339,24,24
5340,18,17
5341,24,25
5342,17,16
5343,16,16
5344,18,17
5345,16,21
5346,21,22
5347,23,23
5348,15,15
5349,15,17
5350,22,21
5351,17,17
5352,20,20
5353,20,18
5354,15,17
5355,11,11
5356,24,24
5357,19,25
5358,10,11
5359,11,12
5360,8,8
5361,20,20
5362,19,19
5363,20,20
5364,19,19
5365,18,18
5366,25,24
5367,14,15
5368,23,24
5369,17,18
5370,14,14
5371,15,15
5372,16,9
5373,18,18
5374,9,11
5375,10,10
5376,12,13
5377,25,23
5378,19,19
5379,16,16
5380,2,2
5381,25,25
5382,19,20
5383,20,20
5384,16,17
5385,5,5
5386,20,20
5387,19,17
5388,9,9
5389,20,25
5390,18,24
5391,9,9
5392,14,15
5393,7,8
5394,20,18
5395,17,16
5396,23,23
5397,14,15
5398,19,19
5399,3,2
5400,12,12
5401,14,12
5402,14,24
5403,16,15
5404,15,13
5405,21,21
5406,24,25
5407,12,11
5408,20,20
5409,15,16
5410,23,23
5411,9,10
5412,5,5
5413,9,9
5414,10,9
5415,22,15
5416,16,16
5417,17,17
5418,16,16
5419,18,20
5420,21,21
5421,20,12
5422,16,15
5423,15,14
5424,19,25
5425,19,18
5426,18,17
5427,22,22
5428,18,18
5429,9,10
5430,8,8
5431,17,16
5432,22,22
5433,19,21
5434,22,21
5435,18,21
5436,23,23
5437,11,11
5438,16,21
5439,21,20
5440,13,12
5441,20,19
5442,25,23
5443,5,5
5444,26,25
5445,19,17
5446,22,21
5447,17,16
5448,7,7
5449,22,22
5450,26,25
5451,18,18
5452,20,18
5453,8,8
5454,12,11
5455,13,13
5456,10,9
5457,16,16
5458,17,16
5459,13,14
5460,16,17
5461,12,14
5462,24,23
5463,17,17
5464,16,16
5465,22,18
5466,13,23
5467,23,25
5468,19,15
5469,16,16
5470,20,14
5471,10,8
5472,18,18
5473,15,15
5474,20,4
5475,19,19
5476,23,23
5477,20,20
5478,22,24
5479,21,21
5480,18,20
5481,6,8
5482,16,17
5483,18,22
5484,4,5
5485,20,22
5486,26,24
5487,19,11
5488,14,13
5489,10,10
5490,13,12
5491,20,20
5492,22,24
5493,16,19
5494,17,18
5495,6,10
5496,21,21
5497,12,12
5498,12,12
5499,16,16
5500,17,17
5501,21,18
5502,10,9
5503,25,24
5504,11,12
5505,19,20
5506,15,15
5507,21,21
5508,11,11
5509,13,13
5510,21,23
5511,18,18
5512,11,12
5513,19,4
5514,17,19
5515,16,16
5516,17,17
5517,11,11
5518,17,16
5519,18,18
5520,15,18
5521,3,4
5522,20,20
5523,15,16
5524,7,6
5525,7,6
5526,17,21
5527,16,16
5528,14,13
5529,15,16
5530,23,24
5531,11,11
5532,17,21
5533,25,24
5534,4,3
5535,9,8
5536,7,6
5537,26,24
5538,18,18
5539,14,14
5540,22,21
5541,20,20
5542,14,14
5543,19,19
5544,16,16
5545,8,8
5546,16,16
5547,13,14
5548,8,7
5549,20,6
5550,16,15
5551,16,21
5552,23,22
5553,16,23
5554,5,6
5555,6,6
5556,22,22
5557,9,8
5558,14,15
5559,19,19
5560,20,22
5561,11,12
5562,6,7
5563,7,7
5564,15,25
5565,14,13
5566,12,13
5567,21,17
5568,15,20
5569,20,20
5570,14,14
5571,6,5
5572,22,23
5573,17,16
5574,11,12
5575,19,19
5576,11,11
5577,17,18
5578,14,12
5579,20,19
5580,10,10
5581,26,25
5582,9,10
5583,17,17
5584,13,13
5585,14,14
5586,19,19
5587,14,14
5588,24,24
5589,20,20
5590,7,7
5591,18,16
5592,6,7
5593,17,17
5594,19,25
5595,25,24
5596,17,17
5597,10,11
5598,17,4
5599,15,20
5600,15,15
5601,16,20
5602,16,15
5603,8,7
5604,5,6
5605,10,10
5606,14,12
5607,17,19
5608,15,15
5609,19,19
5610,15,14
5611,17,15
5612,18,21
5613,22,22
5614,17,14
5615,15,17
5616,7,7
5617,18,18
5618,16,14
5619,17,17
5620,16,20
5621,18,18
5622,23,22
5623,14,12
5624,20,19
5625,16,16
5626,18,18
5627,15,15
5628,23,24
5629,12,12
5630,13,13
5631,20,20
5632,19,22
5633,16,20
5634,21,19
5635,20,20
5636,16,13
5637,17,17
5638,16,22
5639,3,3
5640,15,2
5641,17,18
5642,22,24
5643,21,23
5644,15,15
5645,19,19
5646,15,16
5647,22,22
5648,23,22
5649,20,19
5650,18,16
5651,22,20
5652,22,25
5653,16,15
5654,18,20
5655,8,9
5656,17,18
5657,6,7
5658,17,21
5659,25,24
5660,18,22
5661,10,10
5662,24,24
5663,19,19
5664,14,14
5665,12,12
5666,16,16
5667,24,23
5668,19,23
5669,14,14
5670,18,20
5671,18,19
5672,12,12
5673,16,16
5674,15,15
5675,16,14
5676,22,22
5677,23,23
5678,24,23
5679,14,15
5680,8,8
5681,25,24
5682,12,14
5683,10,9
5684,18,18
5685,14,21
5686,20,15
5687,23,22
5688,23,24
5689,20,21
5690,17,16
5691,14,13
5692,26,24
5693,19,19
5694,6,7
5695,12,11
5696,16,12
5697,21,14
5698,7,7
5699,22,20
5700,24,18
5701,12,13
5702,19,19
5703,6,7
5704,4,4
5705,7,7
5706,5,5
5707,25,23
5708,20,20
5709,23,22
5710,22,21
5711,16,16
5712,11,12
5713,16,17
5714,15,14
5715,5,5
5716,8,11
5717,16,16
5718,25,24
5719,15,18
5720,22,14
5721,13,12
5722,18,16
5723,19,19
5724,20,19
5725,19,19
5726,15,15
5727,22,22
5728,16,19
5729,20,16
5730,24,24
5731,17,16
5732,9,9
5733,22,21
5734,20,20
5735,14,13
5736,25,24
5737,17,16
5738,22,22
5739,15,15
5740,19,20
5741,14,14
5742,12,13
5743,12,13
5744,19,22
5745,21,22
5746,19,19
5747,14,13
5748,26,16
5749,11,12
5750,24,25
5751,13,13
5752,12,12
5753,19,18
5754,13,13
5755,24,22
5756,21,19
5757,20,20
5758,22,4
5759,13,14
5760,20,20
5761,10,21
5762,17,17
5763,20,20
5764,22,22
5765,20,22
5766,20,21
5767,13,12
5768,22,23
5769,13,13
5770,11,7
5771,22,22
5772,16,16
5773,21,21
5774,18,17
5775,19,25
5776,16,17
5777,15,14
5778,17,17
5779,13,13
5780,14,14
5781,18,21
5782,17,19
5783,25,24
5784,7,7
5785,3,3
5786,11,11
5787,5,5
5788,22,19
5789,16,17
5790,22,22
5791,15,14
5792,15,13
5793,20,21
5794,13,13
5795,19,20
5796,10,10
5797,21,20
5798,12,12
5799,10,11
5800,22,21
5801,17,16
5802,16,16
5803,17,18
5804,7,7
5805,29,18
5806,16,4
5807,16,23
5808,16,21
5809,22,22
5810,15,12
5811,14,12
5812,7,11
5813,12,4
5814,16,20
5815,18,17
5816,16,16
5817,20,19
5818,14,13
5819,15,15
5820,17,18
5821,15,16
5822,8,7
5823,10,10
5824,16,20
5825,13,12
5826,14,15
5827,19,14
5828,21,21
5829,10,11
5830,23,23
5831,11,10
5832,14,15
5833,21,21
5834,19,18
5835,6,6
5836,11,9
5837,25,25
5838,11,12
5839,17,18
5840,24,24
5841,25,25
5842,1,3
5843,19,23
5844,21,22
5845,9,9
5846,11,11
5847,14,13
5848,13,14
5849,12,12
5850,5,3
5851,19,20
5852,12,12
5853,10,10
5854,11,9
5855,22,22
5856,22,5
5857,7,8
5858,15,15
5859,13,14
5860,20,19
5861,17,17
5862,17,17
5863,14,14
5864,22,19
5865,20,19
5866,8,8
5867,22,22
5868,7,7
5869,16,16
5870,14,18
5871,24,25
5872,19,21
5873,21,21
5874,13,13
5875,22,20
5876,24,23
5877,20,21
5878,19,17
5879,21,18
5880,21,20
5881,17,21
5882,12,13
5883,18,4
5884,17,15
5885,20,19
5886,15,16
5887,25,24
5888,25,24
5889,21,22
5890,12,21
5891,17,20
5892,16,16
5893,4,3
5894,20,21
5895,16,15
5896,9,10
5897,16,15
5898,18,16
5899,15,15
5900,20,12
5901,9,8
5902,17,23
5903,19,19
5904,15,22
5905,15,15
5906,13,20
5907,19,21
5908,21,20
5909,21,22
5910,17,15
5911,19,19
5912,8,9
5913,12,14
5914,24,24
5915,16,16
5916,17,16
5917,23,23
5918,15,19
5919,19,21
5920,21,21
5921,22,23
5922,18,17
5923,16,16
5924,12,11
5925,14,13
5926,14,14
5927,16,15
5928,18,18
5929,12,12
5930,16,17
5931,13,11
5932,13,14
5933,9,6
5934,12,16
5935,14,16
5936,23,24
5937,14,15
5938,8,8
5939,18,18
5940,16,20
5941,17,17
5942,12,13
5943,21,20
5944,19,19
5945,15,16
5946,15,15
5947,22,23
5948,15,17
5949,23,22
5950,10,10
5951,31,18
5952,6,6
5953,24,23
5954,18,18
5955,10,11
5956,21,19
5957,13,14
5958,17,21
5959,16,17
5960,22,23
5961,21,22
5962,4,3
5963,10,10
5964,15,20
5965,2,3
5966,18,20
5967,2,2
5968,26,25
5969,10,10
5970,13,14
5971,18,22
5972,18,21
5973,16,17
5974,19,20
5975,9,11
5976,22,23
5977,5,7
5978,17,18
5979,16,12
5980,16,15
5981,13,12
5982,2,2
5983,8,8
5984,21,21
5985,17,16
5986,20,21
5987,10,11
5988,23,22
5989,14,19
5990,18,14
5991,22,22
5992,7,6
5993,18,23
5994,16,18
5995,14,11
5996,20,24
5997,17,18
5998,24,25
5999,21,20
6000,20,19
6001,14,13
6002,17,17
6003,18,18
6004,17,18
6005,22,22
6006,18,20
6007,20,20
6008,13,13
6009,19,19
6010,18,18
6011,20,21
6012,19,19
6013,13,13
6014,16,16
6015,16,22
6016,5,5
6017,4,3
6018,9,9
6019,17,18
6020,19,19
6021,12,14
6022,11,10
6023,19,18
6024,18,17
6025,18,6
6026,20,21
6027,16,17
6028,25,24
6029,21,20
6030,21,22
6031,22,20
6032,15,16
6033,14,14
6034,14,14
6035,7,6
6036,16,16
6037,21,21
6038,10,9
6039,23,23
6040,18,18
6041,18,17
6042,19,21
6043,21,21
6044,24,23
6045,6,5
6046,21,21
6047,16,16
6048,21,22
6049,23,22
6050,25,24
6051,22,22
6052,20,19
6053,13,11
6054,16,20
6055,2,3
6056,18,19
6057,11,10
6058,5,6
6059,26,24
6060,7,6
6061,21,12
6062,17,12
6063,14,14
6064,17,19
6065,19,19
6066,24,24
6067,21,21
6068,16,23
6069,18,18
6070,20,21
6071,20,20
6072,10,10
6073,16,17
6074,23,24
6075,23,23
6076,17,17
6077,6,7
6078,14,16
6079,22,21
6080,26,24
6081,23,22
6082,17,17
6083,11,13
6084,13,12
6085,14,14
6086,19,18
6087,11,10
6088,20,22
6089,9,9
6090,16,16
6091,22,22
6092,16,16
6093,16,12
6094,17,17
6095,13,23
6096,7,7
6097,19,23
6098,14,14
6099,17,18
6100,14,13
6101,19,20
6102,6,6
6103,14,15
6104,24,23
6105,14,14
6106,20,20
6107,5,5
6108,22,22
6109,17,17
6110,14,13
6111,12,12
6112,21,21
6113,13,15
6114,16,17
6115,26,24
6116,11,11
6117,13,13
6118,19,22
6119,18,17
6120,6,6
6121,6,5
6122,14,15
6123,22,22
6124,16,20
6125,11,11
6126,22,22
6127,19,18
6128,21,20
6129,11,10
6130,15,21
6131,22,22
6132,18,21
6133,5,5
6134,16,20
6135,18,18
6136,20,20
6137,19,19
6138,22,23
6139,9,9
6140,6,6
6141,7,6
6142,22,23
6143,19,19
6144,13,12
6145,13,13
6146,19,20
6147,9,9
6148,17,18
6149,15,15
6150,16,17
6151,14,14
6152,18,18
6153,23,24
6154,9,10
6155,17,22
6156,18,20
6157,16,16
6158,29,25
6159,9,11
6160,20,19
6161,23,22
6162,18,19
6163,3,4
6164,15,14
6165,18,20
6166,10,11
6167,18,18
6168,23,24
6169,6,6
6170,6,6
6171,25,25
6172,20,19
6173,16,14
6174,19,19
6175,14,13
6176,14,12
6177,3,3
6178,17,17
6179,21,20
6180,16,23
6181,17,21
6182,8,8
6183,26,25
6184,11,11
6185,14,13
6186,19,17
6187,7,8
6188,17,17
6189,9,9
6190,18,20
6191,9,10
6192,19,20
6193,17,21
6194,23,21
6195,16,15
6196,2,2
6197,20,19
6198,18,19
6199,19,11
6200,9,10
6201,18,16
6202,23,23
6203,7,7
6204,23,24
6205,16,16
6206,17,17
6207,9,9
6208,15,14
6209,22,24
6210,9,6
6211,19,15
6212,21,20
6213,22,23
6214,7,6
6215,16,16
6216,21,22
6217,12,11
6218,5,5
6219,24,22
6220,20,22
6221,3,3
6222,18,18
6223,18,17
6224,10,10
6225,19,12
6226,10,8
6227,21,21
6228,27,25
6229,24,23
6230,10,16
6231,17,18
6232,22,21
6233,6,6
6234,21,20
6235,21,19
6236,14,12
6237,18,20
6238,16,16
6239,19,21
6240,14,13
6241,5,6
6242,18,18
6243,24,24
6244,18,15
6245,21,20
6246,21,18
6247,16,15
6248,9,9
6249,2,3
6250,5,5
6251,25,22
6252,15,15
6253,9,8
6254,19,11
6255,25,22
6256,19,19
6257,18,20
6258,14,14
6259,15,15
6260,8,8
6261,20,20
6262,26,24
6263,18,18
6264,23,21
6265,7,7
6266,25,24
6267,23,23
6268,18,17
6269,8,8
6270,20,21
6271,29,25
6272,21,20
6273,20,21
6274,16,16
6275,14,14
6276,23,23
6277,19,15
6278,15,20
6279,2,5
6280,9,9
6281,15,14
6282,23,21
6283,15,15
6284,20,20
6285,24,24
6286,16,20
6287,17,17
6288,17,17
6289,9,8
6290,20,20
6291,8,7
6292,15,22
6293,16,17
6294,23,24
6295,23,24
6296,3,3
6297,12,11
6298,24,24
6299,24,24
6300,11,11
6301,20,19
6302,8,8
6303,25,24
6304,17,19
6305,17,21
6306,26,25
6307,26,24
6308,21,19
6309,11,12
6310,20,22
6311,16,21
6312,15,16
6313,12,12
6314,22,23
6315,12,12
6316,22,23
6317,17,15
6318,9,11
6319,23,24
6320,17,17
6321,13,13
6322,23,25
6323,19,19
6324,24,24
6325,22,23
6326,20,20
6327,23,13
6328,8,8
6329,18,18
6330,14,14
6331,7,7
6332,20,24
6333,1,3
6334,19,24
6335,19,20
6336,13,12
6337,17,17
6338,10,10
6339,24,24
6340,21,13
6341,5,7
6342,26,25
6343,18,17
6344,11,12
6345,15,18
6346,6,6
6347,20,22
6348,22,20
6349,13,12
6350,17,17
6351,15,16
6352,23,22
6353,18,18
6354,19,25
6355,20,21
6356,19,18
6357,17,18
6358,18,20
6359,26,25
6360,10,10
6361,22,22
6362,19,17
6363,18,18
6364,14,14
6365,22,25
6366,26,25
6367,16,16
6368,21,18
6369,19,25
6370,20,20
6371,18,22
6372,1,2
6373,17,18
6374,20,20
6375,13,13
6376,22,23
6377,17,22
6378,17,17
6379,6,8
6380,6,7
6381,23,24
6382,17,17
6383,17,16
6384,12,12
6385,15,16
6386,5,4
6387,24,24
6388,19,20
6389,16,17
6390,7,8
6391,8,9
6392,18,19
6393,16,16
6394,21,21
6395,1,2
6396,20,20
6397,6,6
6398,7,7
6399,9,9
6400,23,23
6401,23,23
6402,24,23
6403,23,22
6404,20,9
6405,18,14
6406,12,11
6407,17,20
6408,13,13
6409,15,16
6410,11,9
6411,23,23
6412,14,13
6413,23,24
6414,19,20
6415,17,22
6416,24,24
6417,4,4
6418,10,9
6419,2,7
6420,15,14
6421,20,10
6422,23,23
6423,9,9
6424,14,16
6425,13,12
6426,24,23
6427,19,14
6428,15,15
6429,25,23
6430,22,25
6431,23,23
6432,20,20
6433,19,19
6434,19,23
6435,24,22
6436,18,18
6437,25,24
6438,9,10
6439,13,13
6440,17,17
6441,18,21
6442,26,25
6443,9,9
6444,13,13
6445,23,23
6446,22,22
6447,15,15
6448,24,23
6449,20,19
6450,16,15
6451,22,22
6452,8,6
6453,22,23
6454,25,24
6455,16,17
6456,20,20
6457,12,12
6458,7,8
6459,17,16
6460,19,20
6461,15,15
6462,17,20
6463,19,19
6464,24,24
6465,24,22
6466,9,9
6467,12,13
6468,22,23
6469,19,19
6470,21,22
6471,20,20
6472,14,15
6473,11,10
6474,19,18
6475,24,24
6476,20,20
6477,18,18
6478,14,14
6479,16,15
6480,23,23
6481,21,25
6482,21,4
6483,20,19
6484,6,6
6485,15,15
6486,14,14
6487,11,11
6488,19,21
6489,19,5
6490,23,20
6491,7,7
6492,16,20
6493,19,20
6494,4,5
6495,23,24
6496,24,22
6497,15,15
6498,15,15
6499,20,20
6500,19,19
6501,1,2
6502,19,20
6503,24,24
6504,12,13
6505,4,5
6506,23,22
6507,23,18
6508,8,9
6509,20,19
6510,13,11
6511,24,24
6512,14,11
6513,19,21
6514,19,14
6515,13,14
6516,9,9
6517,14,21
6518,11,10
6519,21,21
6520,23,22
6521,20,4
6522,14,14
6523,2,2
6524,15,13
6525,20,21
6526,26,25
6527,9,8
6528,21,21
6529,17,16
6530,16,18
6531,28,25
6532,19,18
6533,11,11
6534,7,6
6535,17,15
6536,25,24
6537,15,15
6538,7,6
6539,22,20
6540,20,13
6541,12,12
6542,16,15
6543,22,21
6544,13,12
6545,10,11
6546,17,21
6547,6,7
6548,22,20
6549,11,11
6550,4,5
6551,6,6
6552,19,19
6553,14,14
6554,16,21
6555,7,9
6556,23,23
6557,20,21
6558,16,14
6559,15,15
6560,18,20
6561,9,10
6562,19,21
6563,14,13
6564,9,8
6565,19,21
6566,21,23
6567,20,19
6568,17,17
6569,15,15
6570,6,5
6571,23,23
6572,12,12
6573,11,10
6574,17,17
6575,10,11
6576,23,24
6577,16,17
6578,8,8
6579,23,22
6580,20,19
6581,15,23
6582,6,6
6583,17,17
6584,20,17
6585,10,9
6586,16,16
6587,21,21
6588,9,11
6589,6,6
6590,21,21
6591,20,22
6592,8,8
6593,18,20
6594,10,11
6595,14,14
6596,5,5
6597,19,20
6598,10,11
6599,11,10
6600,12,12
6601,16,16
6602,12,13
6603,20,20
6604,16,18
6605,11,10
6606,24,23
6607,21,22
6608,22,22
6609,18,19
6610,17,18
6611,5,7
6612,17,17
6613,21,22
6614,23,25
6615,20,18
6616,21,19
6617,17,16
6618,18,18
6619,20,22
6620,17,17
6621,17,17
6622,19,12
6623,22,22
6624,16,15
6625,8,9
6626,9,9
6627,18,18
6628,16,14
6629,7,7
6630,21,21
6631,17,16
6632,2,3
6633,20,19
6634,16,17
6635,2,2
6636,23,18
6637,16,15
6638,14,12
6639,25,24
6640,15,14
6641,23,22
6642,16,16
6643,11,12
6644,17,20
6645,7,9
6646,26,24
6647,15,15
6648,2,2
6649,16,16
6650,15,15
6651,15,14
6652,13,13
6653,21,22
6654,16,16
6655,13,12
6656,5,6
6657,21,21
6658,17,17
6659,20,20
6660,21,21
6661,13,14
6662,19,20
6663,17,16
6664,16,17
6665,17,16
6666,19,18
6667,24,25
6668,25,24
6669,17,17
6670,4,5
6671,18,19
6672,17,18
6673,20,19
6674,2,2
6675,12,11
6676,16,16
6677,18,19
6678,14,14
6679,19,14
6680,18,18
6681,20,22
6682,19,18
6683,5,4
6684,12,12
6685,13,13
6686,14,10
6687,23,22
6688,20,22
6689,27,24
6690,19,12
6691,15,16
6692,7,7
6693,21,21
6694,15,15
6695,20,20
6696,14,14
6697,18,11
6698,19,19
6699,11,11
6700,14,17
6701,21,22
6702,17,20
6703,16,16
6704,9,10
6705,20,19
6706,18,18
6707,16,16
6708,0,2
6709,19,19
6710,25,24
6711,13,13
6712,9,8
6713,15,14
6714,12,12
6715,17,17
6716,15,16
6717,4,3
6718,13,14
6719,18,14
6720,16,19
6721,10,10
6722,16,16
6723,19,18
6724,4,5
6725,19,22
6726,2,2
6727,7,7
6728,18,23
6729,18,25
6730,20,17
6731,20,20
6732,17,16
6733,6,6
6734,21,21
6735,20,12
6736,8,8
6737,22,2
6738,20,19
6739,17,16
6740,9,9
6741,20,20
6742,16,21
6743,17,17
6744,18,20
6745,21,22
6746,18,18
6747,16,16
6748,19,19
6749,11,11
6750,23,22
6751,11,12
6752,16,21
6753,9,9
6754,11,8
6755,9,9
6756,24,25
6757,20,20
6758,16,16
6759,16,17
6760,20,19
6761,16,16
6762,16,17
6763,23,22
6764,18,20
6765,18,21
6766,16,16
6767,20,21
6768,17,17
6769,23,25
6770,20,20
6771,13,14
6772,15,14
6773,20,21
6774,22,7
6775,16,17
6776,14,14
6777,25,23
6778,10,9
6779,20,21
6780,8,8
6781,20,21
6782,7,7
6783,15,15
6784,6,6
6785,20,21
6786,20,21
6787,15,16
6788,17,17
6789,17,17
6790,23,23
6791,22,22
6792,12,12
6793,19,25
6794,21,20
6795,24,20
6796,17,17
6797,15,15
6798,21,20
6799,15,15
6800,18,20
6801,18,17
6802,7,6
6803,18,18
6804,23,20
6805,27,25
6806,12,11
6807,16,17
6808,4,4
6809,16,16
6810,19,19
6811,24,22
6812,17,17
6813,6,5
6814,24,24
6815,14,13
6816,4,5
6817,13,20
6818,20,19
6819,12,12
6820,22,21
6821,20,19
6822,9,12
6823,14,13
6824,15,16
6825,18,19
6826,26,24
6827,17,20
6828,18,21
6829,14,12
6830,14,14
6831,9,8
6832,14,14
6833,11,12
6834,25,24
6835,18,17
6836,19,20
6837,15,16
6838,17,17
6839,16,18
6840,18,21
6841,19,13
6842,8,7
6843,16,16
6844,18,18
6845,11,11
6846,4,4
6847,25,24
6848,6,7
6849,22,22
6850,17,17
6851,17,15
6852,23,23
6853,17,20
6854,22,24
6855,19,18
6856,3,3
6857,16,16
6858,11,11
6859,7,7
6860,17,17
6861,18,16
6862,9,9
6863,9,9
6864,16,16
6865,13,13
6866,20,12
6867,21,21
6868,13,13
6869,8,9
6870,12,12
6871,18,19
6872,17,17
6873,18,22
6874,7,7
6875,22,23
6876,19,20
6877,24,23
6878,18,18
6879,2,2
6880,16,12
6881,8,9
6882,15,15
6883,8,8
6884,12,13
6885,24,24
6886,19,19
6887,7,6
6888,8,8
6889,5,6
6890,21,21
6891,9,9
6892,8,8
6893,15,15
6894,19,14
6895,15,14
6896,19,19
6897,21,20
6898,6,6
6899,20,18
6900,19,22
6901,14,2
6902,16,19
6903,3,2
6904,19,19
6905,7,7
6906,7,7
6907,23,24
6908,12,13
6909,16,17
6910,12,11
6911,11,11
6912,23,23
6913,17,17
6914,17,20
6915,13,14
6916,7,9
6917,13,13
6918,22,22
6919,16,20
6920,17,17
6921,15,20
6922,10,10
6923,22,24
6924,12,12
6925,24,24
6926,7,6
6927,19,20
6928,2,2
6929,12,13
6930,19,21
6931,15,16
6932,17,18
6933,19,23
6934,15,13
6935,20,7
6936,18,18
6937,17,17
6938,13,14
6939,17,18
6940,14,15
6941,20,19
6942,15,15
6943,20,22
6944,23,23
6945,18,20
6946,14,21
6947,14,15
6948,16,14
6949,8,11
6950,16,16
6951,21,20
6952,21,22
6953,15,10
6954,23,24
6955,16,20
6956,6,6
6957,12,13
6958,15,14
6959,16,25
6960,26,25
6961,18,17
6962,21,20
6963,9,12
6964,9,9
6965,11,7
6966,26,23
6967,3,3
6968,22,21
6969,19,20
6970,25,25
6971,10,8
6972,17,18
6973,21,21
6974,16,16
6975,23,24
6976,15,24
6977,20,20
6978,15,15
6979,7,11
6980,10,10
6981,18,18
6982,16,17
6983,11,11
6984,6,6
6985,12,12
6986,24,24
6987,18,17
6988,18,21
6989,25,25
6990,9,9
6991,19,19
6992,7,6
6993,20,22
6994,19,18
6995,17,20
6996,15,14
6997,18,16
6998,9,11
6999,21,21
7000,20,19
7001,18,17
7002,22,20
7003,20,22
7004,18,19
7005,19,19
7006,18,21
7007,15,16
7008,24,24
7009,17,21
7010,13,12
7011,17,20
7012,26,25
7013,11,13
7014,5,7
7015,22,23
7016,15,15
7017,16,20
7018,9,7
7019,19,20
7020,16,16
7021,6,6
7022,10,10
7023,20,20
7024,3,2
7025,22,5
7026,15,15
7027,18,9
7028,11,11
7029,9,12
7030,9,8
7031,13,10
7032,11,11
7033,18,21
7034,7,8
7035,17,17
7036,21,23
7037,5,5
7038,10,7
7039,14,12
7040,14,14
7041,16,16
7042,26,25
7043,21,21
7044,15,15
7045,20,20
7046,20,21
7047,9,9
7048,10,11
7049,16,17
7050,20,20
7051,22,23
7052,14,14
7053,24,24
7054,7,6
7055,18,18
7056,17,17
7057,16,16
7058,25,24
7059,19,14
7060,19,20
7061,16,17
7062,7,7
7063,17,17
7064,5,6
7065,7,7
7066,17,18
7067,16,16
7068,14,21
7069,18,18
7070,23,23
7071,12,11
7072,17,17
7073,11,11
7074,2,2
7075,17,17
7076,17,21
7077,18,17
7078,16,16
7079,15,16
7080,15,14
7081,4,5
7082,21,21
7083,17,17
7084,21,22
7085,15,15
7086,25,24
7087,13,13
7088,15,23
7089,14,11
7090,16,16
7091,22,24
7092,20,20
7093,24,24
7094,17,9
7095,15,20
7096,22,22
7097,17,17
7098,19,5
7099,19,19
7100,20,21
7101,20,20
7102,22,19
7103,18,18
7104,15,15
7105,19,22
7106,20,20
7107,14,23
7108,15,15
7109,17,19
7110,9,7
7111,16,17
7112,8,8
7113,8,8
7114,14,13
7115,19,22
7116,20,20
7117,23,23
7118,18,18
7119,19,19
7120,18,21
7121,21,21
7122,15,17
7123,22,21
7124,11,11
7125,19,12
7126,2,4
7127,21,22
7128,9,8
7129,5,9
7130,8,9
7131,15,15
7132,6,6
7133,25,25
7134,18,25
7135,10,10
7136,12,12
7137,22,21
7138,16,16
7139,18,17
7140,17,17
7141,20,4
7142,3,3
7143,12,12
7144,23,22
7145,14,14
7146,22,24
7147,17,17
7148,13,12
7149,24,23
7150,18,18
7151,7,8
7152,20,16
7153,23,24
7154,22,20
7155,15,15
7156,20,6
7157,16,17
7158,25,22
7159,14,14
7160,15,15
7161,25,25
7162,6,5
7163,18,22
7164,23,22
7165,13,24
7166,21,20
7167,12,12
7168,14,15
7169,19,19
7170,20,12
7171,19,19
7172,3,4
7173,7,7
7174,20,20
7175,15,16
7176,14,14
7177,18,17
7178,20,20
7179,24,23
7180,13,13
7181,16,16
7182,8,8
7183,13,12
7184,23,23
7185,15,15
7186,20,25
7187,19,20
7188,13,17
7189,18,20
7190,10,8
7191,13,14
7192,23,23
7193,17,16
7194,16,16
7195,22,14
7196,17,17
7197,17,16
7198,16,12
7199,16,16
7200,13,14
7201,18,18
7202,20,19
7203,21,21
7204,19,19
7205,26,25
7206,16,16
7207,16,22
7208,19,16
7209,20,20
7210,15,15
7211,11,11
7212,23,23
7213,17,18
7214,20,21
7215,18,18
7216,18,18
7217,6,6
7218,11,11
7219,17,18
7220,14,13
7221,7,7
7222,21,19
7223,26,21
7224,16,18
7225,16,21
7226,21,17
7227,14,14
7228,20,20
7229,15,15
7230,16,20
7231,19,19
7232,20,20
7233,8,9
7234,16,16
7235,19,18
7236,12,11
7237,23,24
7238,19,18
7239,24,25
7240,21,11
7241,13,13
7242,10,10
7243,17,17
7244,24,23
7245,1,3
7246,23,23
7247,15,15
7248,14,14
7249,20,20
7250,21,22
7251,17,18
7252,17,17
7253,12,12
7254,15,14
7255,13,14
7256,20,18
7257,23,24
7258,14,14
7259,14,14
7260,23,22
7261,17,19
7262,7,7
7263,9,8
7264,23,23
7265,21,21
7266,14,15
7267,10,11
7268,16,17
7269,11,11
7270,20,20
7271,19,19
7272,20,19
7273,4,3
7274,8,8
7275,12,12
7276,6,6
7277,22,21
7278,21,21
7279,19,19
7280,23,20
7281,13,14
7282,24,23
7283,27,25
7284,15,15
7285,17,19
7286,19,19
7287,21,20
7288,23,22
7289,22,22
7290,23,20
7291,17,17
7292,11,11
7293,15,16
7294,17,17
7295,23,23
7296,17,17
7297,11,10
7298,18,18
7299,16,16
7300,18,13
7301,26,24
7302,16,18
7303,7,7
7304,20,25
7305,14,14
7306,6,5
7307,21,21
7308,15,15
7309,18,20
7310,8,8
7311,20,22
7312,17,17
7313,17,17
7314,5,9
7315,3,2
7316,21,24
7317,24,23
7318,16,17
7319,7,7
7320,16,16
7321,12,12
7322,13,13
7323,19,22
7324,3,3
7325,4,4
7326,12,12
7327,19,18
7328,11,11
7329,17,16
7330,14,19
7331,11,11
7332,2,2
7333,16,16
7334,19,19
7335,11,11
7336,6,6
7337,20,19
7338,8,8
7339,13,13
7340,21,19
7341,24,25
7342,22,22
7343,24,24
7344,19,19
7345,6,8
7346,19,18
7347,16,20
7348,16,17
7349,20,20
7350,18,22
7351,16,15
7352,27,25
7353,15,15
7354,8,9
7355,22,22
7356,17,17
7357,14,15
7358,7,6
7359,23,14
7360,12,12
7361,17,17
7362,24,23
7363,9,9
7364,13,13
7365,15,15
7366,12,11
7367,18,17
7368,23,23
7369,8,8
7370,23,23
7371,16,16
7372,9,11
7373,22,20
7374,16,14
7375,16,16
7376,5,6
7377,8,9
7378,15,14
7379,19,19
7380,16,16
7381,16,18
7382,17,15
7383,18,19
7384,18,23
7385,14,15
7386,22,23
7387,21,20
7388,24,24
7389,19,20
7390,14,12
7391,21,20
7392,10,7
7393,19,18
7394,13,15
7395,14,14
7396,14,14
7397,14,14
7398,13,12
7399,17,17
7400,2,2
7401,17,23
7402,20,21
7403,2,2
7404,23,19
7405,12,12
7406,20,19
7407,17,15
7408,21,22
7409,3,2
7410,24,23
7411,5,6
7412,17,21
7413,19,24
7414,10,11
7415,18,25
7416,11,10
7417,15,15
7418,20,23
7419,4,5
7420,14,14
7421,22,21
7422,22,19
7423,27,20
7424,9,8
7425,16,16
7426,17,16
7427,16,20
7428,16,25
7429,10,10
7430,15,15
7431,19,25
7432,5,7
7433,24,24
7434,16,15
7435,4,5
7436,22,23
7437,18,19
7438,7,8
7439,18,18
7440,16,16
7441,19,19
7442,23,23
7443,3,3
7444,21,20
7445,5,5
7446,25,24
7447,19,20
7448,12,13
7449,16,23
7450,17,17
7451,11,12
7452,2,2
7453,21,20
7454,14,13
7455,24,25
7456,23,23
7457,15,17
7458,7,8
7459,14,13
7460,21,20
7461,6,5
7462,20,21
7463,20,21
7464,13,12
7465,24,22
7466,19,18
7467,4,4
7468,17,14
7469,14,7
7470,14,14
7471,23,24
7472,16,20
7473,27,24
7474,16,16
7475,22,22
7476,18,18
7477,17,17
7478,18,21
7479,10,12
7480,21,18
7481,5,7
7482,16,20
7483,22,22
7484,18,17
7485,16,18
7486,20,24
7487,22,21
7488,19,17
7489,14,23
7490,5,3
7491,16,20
7492,6,6
7493,10,10
7494,13,11
7495,23,24
7496,2,3
7497,16,24
7498,17,17
7499,12,11
7500,13,13
7501,23,24
7502,7,7
7503,14,13
7504,16,17
7505,12,12
7506,23,24
7507,16,16
7508,24,25
7509,18,18
7510,12,12
7511,1,2
7512,19,16
7513,18,18
7514,23,23
7515,16,16
7516,10,10
7517,23,22
7518,16,16
7519,26,25
7520,16,16
7521,17,15
7522,21,21
7523,25,25
7524,7,7
7525,20,21
7526,6,7
7527,13,12
7528,16,20
7529,19,4
7530,21,20
7531,19,20
7532,16,16
7533,16,16
7534,15,14
7535,18,21
7536,7,6
7537,22,23
7538,24,22
7539,17,18
7540,23,22
7541,12,12
7542,8,7
7543,23,20
7544,15,16
7545,18,18
7546,12,22
7547,22,19
7548,12,11
7549,13,20
7550,18,18
7551,23,20
7552,18,20
7553,16,16
7554,23,23
7555,17,16
7556,22,22
7557,14,14
7558,21,21
7559,18,18
7560,16,19
7561,21,21
7562,8,7
7563,18,20
7564,23,22
7565,5,4
7566,20,20
7567,16,17
7568,23,23
7569,15,14
7570,7,7
7571,4,5
7572,19,20
7573,20,19
7574,6,5
7575,20,20
7576,18,19
7577,28,25
7578,15,16
7579,20,11
7580,18,20
7581,14,14
7582,19,20
7583,18,18
7584,18,18
7585,15,12
7586,16,17
7587,3,2
7588,13,15
7589,11,11
7590,17,17
7591,26,25
7592,9,8
7593,21,22
7594,7,11
7595,25,24
7596,7,9
7597,4,4
7598,15,16
7599,17,22
7600,3,2
7601,22,22
7602,10,10
7603,15,15
7604,21,25
7605,20,21
7606,17,19
7607,21,21
7608,13,13
7609,23,23
7610,13,12
7611,17,24
7612,18,20
7613,21,21
7614,21,21
7615,15,15
7616,2,2
7617,16,16
7618,15,15
7619,18,18
7620,9,10
7621,9,9
7622,12,11
7623,18,19
7624,17,17
7625,29,25
7626,17,17
7627,19,20
7628,15,14
7629,16,15
7630,22,20
7631,6,7
7632,18,18
7633,18,17
7634,5,4
7635,18,20
7636,21,21
7637,20,20
7638,2,2
7639,2,2
7640,16,14
7641,15,16
7642,14,14
7643,16,17
7644,19,19
7645,12,12
7646,19,20
7647,9,8
7648,11,11
7649,12,12
7650,16,16
7651,20,20
7652,20,19
7653,14,14
7654,14,19
7655,3,2
7656,15,21
7657,16,16
7658,20,20
7659,3,4
7660,11,11
7661,23,23
7662,18,15
7663,1,2
7664,17,20
7665,18,18
7666,14,14
7667,16,21
7668,14,13
7669,19,18
7670,11,12
7671,16,16
7672,16,20
7673,21,21
7674,8,8
7675,17,17
7676,22,22
7677,14,14
7678,20,21
7679,19,20
7680,18,25
7681,15,19
7682,11,11
7683,17,19
7684,16,16
7685,13,13
7686,13,14
7687,17,18
7688,19,17
7689,19,19
7690,11,12
7691,5,5
7692,15,13
7693,13,13
7694,16,16
7695,12,12
7696,14,19
7697,14,13
7698,6,7
7699,10,11
7700,8,6
7701,22,14
7702,17,20
7703,20,20
7704,19,19
7705,16,19
7706,19,11
7707,17,21
7708,16,16
7709,19,18
7710,15,15
7711,24,24
7712,21,21
7713,5,5
7714,22,19
7715,7,7
7716,17,17
7717,2,3
7718,15,14
7719,18,19
7720,16,24
7721,18,18
7722,13,14
7723,13,13
7724,13,15
7725,19,18
7726,19,19
7727,17,17
7728,18,18
7729,13,15
7730,10,9
7731,20,19
7732,19,20
7733,20,19
7734,15,14
7735,10,10
7736,21,21
7737,9,9
7738,17,20
7739,21,19
7740,8,8
7741,23,22
7742,22,19
7743,9,11
7744,14,13
7745,17,16
7746,16,17
7747,9,9
7748,21,21
7749,18,23
7750,17,25
7751,7,6
7752,11,11
7753,18,18
7754,18,19
7755,23,18
7756,21,21
7757,16,20
7758,28,25
7759,15,23
7760,22,22
7761,15,15
7762,19,20
7763,16,16
7764,20,14
7765,18,22
7766,14,13
7767,9,9
7768,19,25
7769,17,17
7770,6,7
7771,20,24
7772,17,17
7773,8,9
7774,20,25
7775,19,19
7776,24,24
7777,20,20
7778,23,23
7779,17,15
7780,5,5
7781,12,13
7782,14,14
7783,20,20
7784,21,20
7785,17,20
7786,13,13
7787,14,14
7788,6,6
7789,3,3
7790,11,12
7791,17,17
7792,21,20
7793,7,6
7794,7,7
7795,18,18
7796,16,25
7797,14,18
7798,6,10
7799,21,21
7800,24,24
7801,11,9
7802,23,22
7803,13,13
7804,24,24
7805,17,19
7806,16,15
7807,14,14
7808,15,15
7809,14,14
7810,25,22
7811,15,16
7812,20,19
7813,10,11
7814,28,25
7815,21,14
7816,12,12
7817,22,21
7818,15,14
7819,16,24
7820,23,24
7821,21,19
7822,6,7
7823,4,5
7824,17,14
7825,10,12
7826,21,20
7827,21,21
7828,24,24
7829,26,18
7830,19,20
7831,16,14
7832,19,18
7833,16,17
7834,25,24
7835,17,19
7836,25,25
7837,17,17
7838,12,12
7839,16,15
7840,15,12
7841,15,14
7842,12,12
7843,19,19
7844,16,21
7845,19,20
7846,19,20
7847,23,24
7848,16,16
7849,21,21
7850,15,15
7851,15,20
7852,20,25
7853,17,15
7854,24,4
7855,17,18
7856,14,14
7857,21,21
7858,15,14
7859,13,13
7860,21,17
7861,11,11
7862,13,12
7863,9,8
7864,12,13
7865,19,14
7866,9,9
7867,15,15
7868,23,18
7869,18,18
7870,9,9
7871,17,17
7872,17,16
7873,16,17
7874,16,15
7875,22,9
7876,24,24
7877,15,15
7878,25,20
7879,6,6
7880,13,14
7881,16,16
7882,26,25
7883,10,9
7884,11,11
7885,26,25
7886,21,21
7887,14,15
7888,23,20
7889,10,10
7890,16,17
7891,17,18
7892,25,25
7893,23,22
7894,13,13
7895,6,6
7896,16,18
7897,23,23
7898,18,16
7899,13,13
7900,18,17
7901,18,20
7902,22,23
7903,15,14
7904,15,21
7905,21,21
7906,22,25
7907,17,17
7908,16,16
7909,19,19
7910,7,8
7911,20,21
7912,14,14
7913,14,14
7914,21,21
7915,14,14
7916,13,13
7917,22,22
7918,12,15
7919,16,17
7920,9,8
7921,16,17
7922,24,25
7923,12,10
7924,22,23
7925,19,20
7926,18,18
7927,9,7
7928,6,6
7929,21,24
7930,14,17
7931,15,16
7932,20,20
7933,15,14
7934,19,20
7935,20,21
7936,13,14
7937,15,15
7938,18,20
7939,13,12
7940,10,10
7941,16,15
7942,17,16
7943,16,15
7944,4,3
7945,10,9
7946,24,25
7947,23,24
7948,13,24
7949,16,21
7950,21,20
7951,22,21
7952,4,5
7953,2,2
7954,5,6
7955,16,20
7956,15,23
7957,17,17
7958,9,9
7959,20,20
7960,8,17
7961,24,24
7962,3,3
7963,26,25
7964,14,20
7965,19,18
7966,23,23
7967,7,6
7968,13,12
7969,22,23
7970,10,10
7971,14,14
7972,23,24
7973,8,8
7974,12,14
7975,23,23
7976,12,13
7977,12,12
7978,3,3
7979,18,4
7980,26,25
7981,20,12
7982,24,21
7983,19,19
7984,17,17
7985,14,14
7986,17,20
7987,16,17
7988,8,11
7989,15,14
7990,17,18
7991,22,21
7992,26,25
7993,8,6
7994,10,11
7995,10,10
7996,19,20
7997,16,16
7998,20,20
7999,13,13
8000,15,16
8001,13,13
8002,21,20
8003,13,21
8004,9,7
8005,12,12
8006,17,17
8007,20,21
8008,23,4
8009,28,25
8010,22,22
8011,17,20
8012,11,15
8013,7,8
8014,20,20
8015,15,15
8016,20,20
8017,26,22
8018,16,16
8019,16,16
8020,23,20
8021,20,19
8022,21,20
8023,17,17
8024,25,24
8025,12,12
8026,17,12
8027,7,6
8028,10,8
8029,9,8
8030,25,20
8031,16,22
8032,12,22
8033,19,5
8034,17,12
8035,22,24
8036,29,25
8037,11,11
8038,7,9
8039,19,19
8040,5,5
8041,0,2
8042,19,19
8043,10,10
8044,20,20
8045,13,14
8046,23,24
8047,17,21
8048,20,20
8049,16,16
8050,18,18
8051,19,19
8052,13,12
8053,18,18
8054,21,22
8055,22,21
8056,16,17
8057,8,9
8058,16,16
8059,19,19
8060,7,6
8061,7,6
8062,16,17
8063,11,11
8064,22,21
8065,4,3
8066,21,21
8067,16,16
8068,13,15
8069,17,17
8070,20,20
8071,13,12
8072,19,18
8073,19,18
8074,19,20
8075,14,16
8076,18,18
8077,3,3
8078,16,17
8079,6,5
8080,9,9
8081,20,24
8082,22,4
8083,21,20
8084,2,2
8085,15,15
8086,24,23
8087,5,6
8088,21,20
8089,16,17
8090,15,15
8091,17,17
8092,14,13
8093,15,15
8094,24,24
8095,17,20
8096,21,20
8097,19,19
8098,18,18
8099,19,20
8100,11,12
8101,15,15
8102,17,17
8103,16,16
8104,22,23
8105,20,21
8106,15,15
8107,22,21
8108,19,20
8109,17,17
8110,20,20
8111,16,16
8112,16,16
8113,17,16
8114,23,24
8115,8,8
8116,18,20
8117,4,3
8118,12,13
8119,4,4
8120,19,18
8121,21,20
8122,4,7
8123,17,17
8124,21,20
8125,25,25
8126,23,14
8127,21,20
8128,24,25
8129,25,25
8130,15,20
8131,22,22
8132,22,14
8133,9,9
8134,16,17
8135,21,20
8136,24,22
8137,17,16
8138,6,5
8139,16,16
8140,12,10
8141,21,20
8142,16,17
8143,13,13
8144,13,12
8145,12,12
8146,2,2
8147,18,22
8148,17,12
8149,17,22
8150,6,6
8151,21,19
8152,18,17
8153,24,24
8154,21,19
8155,18,20
8156,18,20
8157,27,16
8158,17,18
8159,16,18
8160,2,3
8161,20,15
8162,13,12
8163,14,13
8164,13,14
8165,13,13
8166,2,2
8167,21,23
8168,10,10
8169,18,19
8170,18,19
8171,17,18
8172,13,14
8173,9,8
8174,23,23
8175,6,6
8176,3,4
8177,1,3
8178,25,25
8179,19,19
8180,19,19
8181,10,11
8182,16,15
8183,19,19
8184,19,20
8185,14,21
8186,9,9
8187,16,21
8188,25,25
8189,17,16
8190,14,13
8191,19,16
8192,21,4
8193,18,23
8194,21,22
8195,12,12
8196,13,13
8197,22,21
8198,21,20
8199,10,10
8200,6,6
8201,17,17
8202,12,15
8203,14,14
8204,18,18
8205,18,18
8206,13,11
8207,24,22
8208,15,16
8209,17,18
8210,15,15
8211,22,22
8212,7,6
8213,22,22
8214,21,20
8215,23,24
8216,18,12
8217,23,23
8218,21,13
8219,4,4
8220,18,18
8221,1,2
8222,19,23
8223,18,18
8224,7,7
8225,12,12
8226,27,25
8227,18,22
8228,20,20
8229,11,11
8230,6,6
8231,16,15
8232,19,19
8233,21,20
8234,17,17
8235,23,23
8236,17,17
8237,20,23
8238,12,12
8239,16,16
8240,13,15
8241,15,16
8242,14,14
8243,24,23
8244,14,15
8245,16,19
8246,8,8
8247,20,19
8248,10,10
8249,16,16
8250,22,23
8251,20,21
8252,10,10
8253,23,21
8254,17,17
8255,25,23
8256,7,7
8257,20,20
8258,10,11
8259,18,25
8260,9,9
8261,16,16
8262,17,16
8263,19,22
8264,11,11
8265,17,17
8266,5,3
8267,25,25
8268,19,20
8269,18,18
8270,24,25
8271,20,19
8272,16,18
8273,22,20
8274,20,19
8275,17,17
8276,10,11
8277,15,15
8278,24,20
8279,19,21
8280,19,19
8281,19,24
8282,11,12
8283,12,12
8284,17,17
8285,30,25
8286,15,14
8287,13,13
8288,21,4
8289,18,21
8290,12,10
8291,4,5
8292,16,16
8293,19,21
8294,11,11
8295,8,9
8296,18,18
8297,4,5
8298,15,15
8299,8,8
8300,23,20
8301,17,17
8302,12,13
8303,19,20
8304,12,13
8305,15,15
8306,5,6
8307,16,16
8308,15,15
8309,13,11
8310,10,8
8311,18,20
8312,19,19
8313,17,16
8314,15,15
8315,15,15
8316,19,19
8317,24,23
8318,7,3
8319,18,18
8320,14,12
8321,18,17
8322,19,20
8323,15,16
8324,20,22
8325,17,17
8326,20,22
8327,4,5
8328,21,20
8329,14,14
8330,18,18
8331,6,5
8332,17,17
8333,16,2
8334,18,18
8335,23,23
8336,20,19
8337,25,24
8338,19,19
8339,23,21
8340,20,25
8341,24,23
8342,25,18
8343,17,15
8344,18,11
8345,20,22
8346,12,12
8347,11,10
8348,26,25
8349,17,23
8350,21,21
8351,11,11
8352,16,16
8353,17,17
8354,18,16
8355,17,16
8356,16,17
8357,17,17
8358,18,17
8359,23,22
8360,14,15
8361,21,20
8362,9,9
8363,22,21
8364,19,19
8365,19,22
8366,6,7
8367,13,13
8368,19,18
8369,25,24
8370,17,18
8371,10,10
8372,20,20
8373,23,23
8374,8,8
8375,22,22
8376,20,21
8377,21,23
8378,17,17
8379,15,21
8380,21,20
8381,20,21
8382,22,21
8383,16,20
8384,8,9
8385,21,20
8386,16,18
8387,18,14
8388,26,25
8389,20,21
8390,20,20
8391,25,25
8392,21,22
8393,24,24
8394,17,19
8395,13,11
8396,17,17
8397,5,5
8398,2,2
8399,22,20
8400,23,24
8401,19,25
8402,18,17
8403,18,20
8404,16,16
8405,24,22
8406,22,22
8407,12,12
8408,19,19
8409,23,22
8410,24,22
8411,14,14
8412,11,11
8413,18,18
8414,25,25
8415,17,17
8416,13,13
8417,17,11
8418,25,23
8419,12,12
8420,9,8
8421,17,13
8422,9,8
8423,23,22
8424,20,20
8425,16,15
8426,10,12
8427,15,11
8428,25,24
8429,18,21
8430,23,23
8431,24,24
8432,16,18
8433,8,10
8434,9,11
8435,14,13
8436,18,17
8437,18,17
8438,19,18
8439,20,18
8440,18,19
8441,23,24
8442,18,19
8443,17,17
8444,21,13
8445,14,14
8446,24,23
8447,19,8
8448,16,16
8449,10,9
8450,17,16
8451,16,17
8452,5,5
8453,19,22
8454,16,18
8455,19,21
8456,19,21
8457,3,3
8458,16,17
8459,16,16
8460,16,17
8461,25,24
8462,12,12
8463,22,22
8464,17,22
8465,20,15
8466,22,20
8467,20,20
8468,11,11
8469,7,7
8470,17,17
8471,17,18
8472,19,19
8473,23,23
8474,20,19
8475,11,11
8476,20,10
8477,14,14
8478,22,21
8479,15,15
8480,6,7
8481,18,16
8482,8,6
8483,19,7
8484,14,14
8485,18,20
8486,18,20
8487,20,14
8488,19,19
8489,16,11
8490,21,20
8491,20,20
8492,16,20
8493,19,14
8494,13,12
8495,13,13
8496,15,16
8497,11,11
8498,22,23
8499,16,18
8500,15,13
8501,9,8
8502,20,20
8503,18,20
8504,18,22
8505,16,16
8506,16,15
8507,17,19
8508,24,24
8509,19,20
8510,18,18
8511,15,19
8512,23,24
8513,16,16
8514,25,23
8515,19,16
8516,17,17
8517,23,22
8518,18,18
8519,27,25
8520,13,14
8521,13,14
8522,8,9
8523,16,16
8524,18,18
8525,11,11
8526,24,23
8527,19,19
8528,18,20
8529,19,14
8530,24,22
8531,15,15
8532,23,24
8533,18,18
8534,7,6
8535,19,20
8536,17,18
8537,6,6
8538,15,15
8539,18,17
8540,16,16
8541,21,21
8542,16,16
8543,14,14
8544,20,20
8545,20,20
8546,18,18
8547,16,16
8548,15,19
8549,23,23
8550,21,21
8551,19,12
8552,13,15
8553,17,14
8554,20,21
8555,19,19
8556,14,14
8557,12,13
8558,18,18
8559,19,18
8560,18,18
8561,22,9
8562,17,17
8563,13,13
8564,22,25
8565,9,9
8566,17,12
8567,5,5
8568,13,13
8569,15,22
8570,1,2
8571,14,14
8572,23,22
8573,24,23
8574,8,8
8575,4,4
8576,20,13
8577,7,7
8578,13,13
8579,19,22
8580,5,5
8581,7,7
8582,23,15
8583,22,22
8584,18,18
8585,20,17
8586,22,24
8587,15,23
8588,17,18
8589,23,22
8590,13,12
8591,21,20
8592,18,14
8593,17,18
8594,21,21
8595,14,23
8596,16,15
8597,10,10
8598,20,22
8599,16,15
8600,18,17
8601,17,19
8602,17,25
8603,11,10
8604,11,11
8605,22,22
8606,21,4
8607,20,21
8608,11,11
8609,21,21
8610,10,12
8611,21,21
8612,3,4
8613,14,15
8614,11,11
8615,22,20
8616,19,14
8617,20,14
8618,20,21
8619,8,8
8620,17,17
8621,16,17
8622,22,22
8623,13,14
8624,24,23
8625,18,20
8626,18,19
8627,17,22
8628,17,17
8629,17,15
8630,15,14
8631,17,16
8632,19,19
8633,4,2
8634,18,18
8635,21,22
8636,12,12
8637,20,6
8638,18,13
8639,12,11
8640,15,16
8641,14,14
8642,16,16
8643,19,15
8644,16,14
8645,11,15
8646,14,15
8647,14,15
8648,23,23
8649,15,15
8650,17,18
8651,20,21
8652,12,11
8653,6,7
8654,13,16
8655,3,3
8656,13,14
8657,17,16
8658,5,5
8659,24,24
8660,15,15
8661,7,7
8662,25,25
8663,20,20
8664,22,21
8665,16,17
8666,11,9
8667,18,20
8668,26,25
8669,17,18
8670,11,9
8671,24,22
8672,22,15
8673,15,15
8674,15,15
8675,6,7
8676,20,14
8677,22,24
8678,19,19
8679,7,7
8680,20,19
8681,18,17
8682,17,18
8683,8,9
8684,8,8
8685,17,17
8686,3,2
8687,4,3
8688,10,10
8689,19,20
8690,19,12
8691,18,18
8692,14,14
8693,25,23
8694,6,6
8695,15,15
8696,18,18
8697,18,16
8698,22,22
8699,13,13
8700,8,8
8701,14,15
8702,10,11
8703,4,4
8704,24,24
8705,4,4
8706,18,20
8707,18,14
8708,11,10
8709,15,20
8710,11,12
8711,18,18
8712,23,22
8713,19,19
8714,20,15
8715,19,19
8716,26,24
8717,15,11
8718,23,23
8719,17,17
8720,18,21
8721,17,20
8722,14,12
8723,17,16
8724,23,24
8725,17,17
8726,19,19
8727,21,20
8728,20,19
8729,18,21
8730,23,21
8731,28,25
8732,18,17
8733,18,17
8734,20,20
8735,18,20
8736,21,23
8737,18,18
8738,9,9
8739,15,15
8740,8,9
8741,1,2
8742,13,14
8743,14,14
8744,16,20
8745,26,24
8746,22,24
8747,15,15
8748,17,16
8749,11,10
8750,23,22
8751,7,8
8752,15,15
8753,23,22
8754,16,17
8755,21,21
8756,19,20
8757,21,19
8758,19,22
8759,22,22
8760,16,16
8761,17,22
8762,18,18
8763,12,13
8764,18,18
8765,18,18
8766,13,13
8767,12,12
8768,15,14
8769,9,8
8770,17,18
8771,16,16
8772,25,24
8773,9,9
8774,3,3
8775,6,7
8776,13,12
8777,10,9
8778,15,15
8779,10,11
8780,7,7
8781,19,23
8782,12,13
8783,18,17
8784,12,13
8785,17,19
8786,16,16
8787,15,17
8788,13,13
8789,20,20
8790,22,22
8791,20,21
8792,19,19
8793,21,20
8794,21,20
8795,15,21
8796,14,14
8797,19,20
8798,16,20
8799,18,20
8800,15,15
8801,15,15
8802,18,18
8803,10,11
8804,19,25
8805,9,9
8806,22,21
8807,19,21
8808,24,4
8809,24,24
8810,11,11
8811,16,16
8812,16,18
8813,23,22
8814,12,12
8815,21,24
8816,13,13
8817,21,21
8818,18,18
8819,18,19
8820,17,16
8821,12,13
8822,23,22
8823,12,12
8824,18,18
8825,17,17
8826,5,7
8827,18,17
8828,17,20
8829,4,3
8830,13,13
8831,21,21
8832,17,17
8833,24,25
8834,8,8
8835,16,23
8836,13,10
8837,5,5
8838,6,7
8839,15,15
8840,21,20
8841,23,23
8842,11,12
8843,16,17
8844,14,14
8845,13,12
8846,21,22
8847,18,18
8848,11,11
8849,10,11
8850,14,19
8851,26,25
8852,24,23
8853,16,17
8854,18,18
8855,2,3
8856,23,21
8857,13,13
8858,18,18
8859,17,13
8860,10,9
8861,16,5
8862,15,15
8863,20,19
8864,9,12
8865,19,19
8866,20,19
8867,5,5
8868,23,24
8869,1,2
8870,19,20
8871,20,20
8872,6,8
8873,21,21
8874,17,20
8875,21,3
8876,8,8
8877,12,11
8878,15,15
8879,20,20
8880,15,16
8881,9,8
8882,11,11
8883,19,20
8884,17,18
8885,17,14
8886,19,15
8887,19,19
8888,9,9
8889,11,7
8890,15,20
8891,20,17
8892,16,16
8893,7,8
8894,24,25
8895,12,14
8896,17,16
8897,20,21
8898,4,5
8899,5,4
8900,21,22
8901,17,17
8902,22,23
8903,11,10
8904,11,10
8905,22,22
8906,20,21
8907,14,13
8908,12,12
8909,17,14
8910,19,20
8911,10,10
8912,21,21
8913,8,8
8914,22,21
8915,15,16
8916,18,18
8917,5,11
8918,16,17
8919,16,14
8920,16,14
8921,6,5
8922,6,11
8923,9,7
8924,5,4
8925,22,21
8926,9,9
8927,19,19
8928,1,4
8929,21,22
8930,22,22
8931,16,16
8932,15,15
8933,15,16
8934,15,15
8935,20,20
8936,12,11
8937,27,25
8938,13,13
8939,10,10
8940,19,19
8941,21,23
8942,20,18
8943,18,17
8944,12,12
8945,18,19
8946,13,13
8947,20,20
8948,16,20
8949,16,16
8950,11,11
8951,18,20
8952,16,16
8953,20,20
8954,18,18
8955,5,5
8956,21,22
8957,16,16
8958,24,24
8959,13,13
8960,26,25
8961,5,8
8962,5,7
8963,17,15
8964,11,11
8965,20,22
8966,11,11
8967,24,20
8968,8,7
8969,2,3
8970,23,24
8971,21,20
8972,9,10
8973,25,24
8974,17,17
8975,17,17
8976,4,4
8977,15,15
8978,8,11
8979,23,23
8980,12,12
8981,24,21
8982,25,24
8983,6,6
8984,3,3
8985,21,23
8986,23,24
8987,19,20
8988,6,5
8989,17,13
8990,18,20
8991,21,20
8992,25,24
8993,14,15
8994,12,13
8995,16,17
8996,18,19
8997,19,19
8998,17,23
8999,21,21
9000,16,17
9001,16,17
9002,15,15
9003,8,7
9004,24,24
9005,16,16
9006,11,10
9007,8,8
9008,24,24
9009,18,18
9010,18,23
9011,14,14
9012,15,16
9013,21,14
9014,20,20
9015,23,24
9016,15,15
9017,16,16
9018,19,19
9019,16,20
9020,22,23
9021,18,17
9022,16,16
9023,18,16
9024,10,10
9025,13,13
9026,4,5
9027,17,17
9028,9,8
9029,24,23
9030,9,10
9031,17,18
9032,21,21
9033,19,18
9034,20,22
9035,19,19
9036,19,19
9037,27,25
9038,21,19
9039,19,18
9040,24,20
9041,25,20
9042,20,22
9043,21,20
9044,12,10
9045,18,20
9046,16,17
9047,18,18
9048,20,21
9049,21,22
9050,16,17
9051,10,10
9052,19,18
9053,18,19
9054,19,21
9055,29,25
9056,22,23
9057,25,24
9058,17,12
9059,21,21
9060,22,20
9061,13,15
9062,8,8
9063,16,15
9064,8,9
9065,15,14
9066,21,15
9067,23,18
9068,9,4
9069,14,14
9070,19,20
9071,15,16
9072,19,19
9073,20,20
9074,18,18
9075,24,24
9076,13,14
9077,25,25
9078,13,11
9079,9,8
9080,20,19
9081,12,13
9082,10,11
9083,15,15
9084,7,8
9085,18,18
9086,22,23
9087,9,7
9088,24,25
9089,17,17
9090,14,13
9091,23,23
9092,12,12
9093,20,20
9094,21,24
9095,23,19
9096,12,13
9097,6,5
9098,20,20
9099,20,20
9100,23,22
9101,19,19
9102,17,17
9103,22,24
9104,11,12
9105,24,25
9106,10,10
9107,18,18
9108,15,14
9109,13,14
9110,21,21
9111,22,23
9112,19,22
9113,18,18
9114,27,25
9115,14,17
9116,12,12
9117,5,5
9118,14,14
9119,15,16
9120,27,25
9121,9,7
9122,15,14
9123,17,17
9124,24,24
9125,20,19
9126,10,11
9127,25,24
9128,24,25
9129,16,21
9130,14,12
9131,18,14
9132,5,5
9133,21,21
9134,21,24
9135,22,21
9136,18,15
9137,7,10
9138,19,17
9139,17,16
9140,21,20
9141,14,20
9142,21,20
9143,2,2
9144,23,20
9145,4,5
9146,18,19
9147,22,20
9148,1,3
9149,16,16
9150,16,17
9151,21,17
9152,16,16
9153,20,12
9154,17,17
9155,9,10
9156,22,23
9157,11,11
9158,27,25
9159,9,11
9160,17,17
9161,19,19
9162,16,16
9163,26,24
9164,19,21
9165,17,17
9166,8,8
9167,13,14
9168,6,4
9169,13,12
9170,21,20
9171,8,8
9172,12,12
9173,25,25
9174,11,11
9175,22,23
9176,23,21
9177,14,14
9178,17,17
9179,10,9
9180,9,9
9181,18,17
9182,21,20
9183,19,18
9184,15,15
9185,13,13
9186,19,19
9187,14,14
9188,20,20
9189,13,13
9190,20,19
9191,8,7
9192,20,20
9193,19,19
9194,18,17
9195,15,15
9196,25,24
9197,21,24
9198,17,17
9199,22,22
9200,21,20
9201,18,18
9202,14,13
9203,11,11
9204,11,11
9205,12,10
9206,18,20
9207,11,11
9208,7,7
9209,16,16
9210,16,14
9211,19,12
9212,18,17
9213,19,20
9214,9,9
9215,8,9
9216,8,9
9217,17,21
9218,13,15
9219,14,14
9220,14,16
9221,16,16
9222,3,2
9223,8,11
9224,25,23
9225,7,7
9226,13,21
9227,18,9
9228,14,10
9229,17,19
9230,18,18
9231,25,23
9232,10,8
9233,18,21
9234,12,12
9235,11,9
9236,17,18
9237,9,8
9238,16,14
9239,17,21
9240,17,16
9241,21,20
9242,19,17
9243,14,14
9244,4,4
9245,14,13
9246,17,9
9247,14,21
9248,16,16
9249,17,17
9250,18,18
9251,7,25
9252,19,21
9253,11,10
9254,6,6
9255,20,20
9256,16,22
9257,26,25
9258,17,17
9259,17,17
9260,16,16
9261,24,22
9262,15,20
9263,17,17
9264,18,18
9265,18,18
9266,15,14
9267,2,3
9268,8,8
9269,15,14
9270,18,19
9271,13,11
9272,16,16
9273,9,8
9274,10,11
9275,19,19
9276,17,17
9277,17,18
9278,2,2
9279,18,16
9280,16,18
9281,18,20
9282,6,6
9283,10,10
9284,16,16
9285,6,6
9286,19,19
9287,16,16
9288,7,6
9289,2,2
9290,2,2
9291,4,5
9292,15,15
9293,19,18
9294,13,13
9295,8,8
9296,18,19
9297,15,15
9298,15,15
9299,12,12
9300,17,17
9301,18,19
9302,10,11
9303,22,20
9304,8,9
9305,13,13
9306,4,5
9307,14,13
9308,21,23
9309,9,8
9310,25,24
9311,21,21
9312,24,20
9313,23,18
9314,16,15
9315,20,20
9316,20,20
9317,16,16
9318,20,20
9319,8,8
9320,22,22
9321,23,14
9322,8,8
9323,26,24
9324,21,21
9325,21,21
9326,17,18
9327,24,24
9328,20,20
9329,6,6
9330,23,23
9331,27,25
9332,17,17
9333,16,16
9334,19,19
9335,21,20
9336,9,9
9337,1,2
9338,19,19
9339,9,8
9340,15,14
9341,19,21
9342,23,23
9343,25,25
9344,18,18
9345,22,21
9346,21,21
9347,8,8
9348,19,19
9349,20,20
9350,8,8
9351,27,25
9352,13,13
9353,24,25
9354,23,22
9355,19,20
9356,11,10
9357,17,18
9358,10,10
9359,23,23
9360,13,13
9361,12,13
9362,19,22
9363,13,12
9364,20,14
9365,11,11
9366,10,11
9367,18,18
9368,19,22
9369,18,11
9370,16,16
9371,8,8
9372,17,17
9373,4,4
9374,21,20
9375,13,12
9376,23,22
9377,15,15
9378,8,7
9379,7,8
9380,7,8
9381,22,23
9382,16,17
9383,21,21
9384,16,16
9385,20,20
9386,24,24
9387,16,19
9388,20,18
9389,17,19
9390,23,22
9391,15,19
9392,24,24
9393,11,12
9394,25,25
9395,19,19
9396,26,25
9397,22,23
9398,22,23
9399,13,12
9400,14,14
9401,14,15
9402,17,16
9403,15,22
9404,3,4
9405,18,20
9406,20,20
9407,17,16
9408,13,12
9409,25,25
9410,9,9
9411,18,23
9412,17,18
9413,16,16
9414,11,12
9415,22,22
9416,23,23
9417,9,9
9418,24,23
9419,17,20
9420,17,16
9421,13,14
9422,15,15
9423,14,15
9424,13,13
9425,5,3
9426,21,21
9427,12,12
9428,16,13
9429,29,25
9430,18,17
9431,15,16
9432,19,19
9433,16,15
9434,7,6
9435,15,15
9436,24,24
9437,17,16
9438,14,15
9439,20,12
9440,25,25
9441,18,25
9442,15,15
9443,16,13
9444,6,6
9445,16,15
9446,21,22
9447,19,19
9448,21,21
9449,25,25
9450,16,18
9451,10,11
9452,20,19
9453,22,21
9454,27,25
9455,16,16
9456,23,23
9457,17,12
9458,19,20
9459,18,19
9460,10,11
9461,16,16
9462,26,25
9463,20,20
9464,18,18
9465,16,23
9466,16,16
9467,16,16
9468,20,19
9469,14,14
9470,18,18
9471,4,4
9472,18,17
9473,23,23
9474,16,16
9475,17,17
9476,18,2
9477,17,18
9478,22,22
9479,24,22
9480,10,10
9481,16,17
9482,13,13
9483,20,19
9484,18,18
9485,14,14
9486,10,11
9487,13,13
9488,17,15
9489,14,14
9490,16,17
9491,19,20
9492,16,17
9493,25,24
9494,14,18
9495,19,19
9496,12,13
9497,17,18
9498,15,20
9499,24,24
9500,23,23
9501,18,19
9502,14,16
9503,18,14
9504,21,21
9505,18,18
9506,18,18
9507,25,24
9508,8,8
9509,10,9
9510,14,14
9511,21,20
9512,19,24
9513,20,21
9514,12,11
9515,14,14
9516,12,12
9517,20,19
9518,16,20
9519,12,11
9520,14,14
9521,7,6
9522,4,5
9523,22,20
9524,22,23
9525,9,17
9526,21,22
9527,19,20
9528,25,25
9529,10,10
9530,15,16
9531,21,20
9532,20,24
9533,16,15
9534,25,25
9535,17,23
9536,20,19
9537,13,13
9538,22,22
9539,18,18
9540,19,21
9541,20,20
9542,19,18
9543,23,23
9544,24,24
9545,13,13
9546,18,18
9547,15,15
9548,8,8
9549,25,22
9550,19,19
9551,15,14
9552,10,9
9553,12,12
9554,23,23
9555,13,13
9556,17,17
9557,24,24
9558,26,25
9559,22,25
9560,23,22
9561,4,4
9562,23,25
9563,17,16
9564,19,21
9565,16,17
9566,20,20
9567,6,6
9568,15,14
9569,18,18
9570,21,21
9571,16,16
9572,21,21
9573,15,16
9574,23,23
9575,18,21
9576,18,20
9577,10,9
9578,5,6
9579,18,16
9580,1,3
9581,23,14
9582,8,8
9583,20,20
9584,18,18
9585,19,18
9586,9,9
9587,10,11
9588,15,16
9589,22,22
9590,21,13
9591,18,17
9592,20,20
9593,19,18
9594,12,12
9595,18,18
9596,22,22
9597,23,23
9598,17,20
9599,18,18
9600,16,4
9601,19,21
9602,19,21
9603,10,11
9604,5,5
9605,13,12
9606,13,13
9607,10,11
9608,12,12
9609,7,9
9610,20,20
9611,20,20
9612,3,4
9613,11,11
9614,25,24
9615,17,17
9616,23,23
9617,26,25
9618,21,22
9619,24,24
9620,21,21
9621,14,14
9622,17,22
9623,18,24
9624,19,19
9625,9,8
9626,17,20
9627,15,15
9628,13,14
9629,19,9
9630,5,5
9631,17,17
9632,16,17
9633,16,17
9634,27,25
9635,15,18
9636,18,18
9637,26,25
9638,21,21
9639,16,16
9640,11,11
9641,17,17
9642,17,22
9643,22,24
9644,18,17
9645,25,25
9646,18,18
9647,15,16
9648,20,20
9649,11,12
9650,20,20
9651,24,14
9652,15,15
9653,11,15
9654,21,21
9655,15,16
9656,15,12
9657,5,6
9658,10,10
9659,4,4
9660,17,18
9661,16,17
9662,12,12
9663,22,24
9664,19,19
9665,25,24
9666,15,12
9667,14,14
9668,12,12
9669,5,6
9670,5,5
9671,24,25
9672,19,15
9673,12,13
9674,17,17
9675,18,18
9676,19,22
9677,23,23
9678,22,22
9679,19,17
9680,27,25
9681,17,17
9682,14,14
9683,18,17
9684,10,10
9685,19,21
9686,22,23
9687,17,17
9688,18,17
9689,18,19
9690,15,19
9691,14,15
9692,14,15
9693,14,14
9694,20,21
9695,2,2
9696,6,6
9697,9,8
9698,13,11
9699,22,23
9700,17,18
9701,7,7
9702,3,3
9703,12,11
9704,18,18
9705,14,20
9706,16,17
9707,4,3
9708,6,5
9709,10,10
9710,13,12
9711,12,11
9712,4,5
9713,15,15
9714,13,11
9715,21,20
9716,23,23
9717,17,15
9718,4,5
9719,21,22
9720,15,14
9721,17,22
9722,22,22
9723,8,7
9724,21,22
9725,20,21
9726,16,10
9727,16,15
9728,28,25
9729,20,19
9730,17,17
9731,19,21
9732,16,13
9733,18,18
9734,17,25
9735,21,22
9736,19,5
9737,19,19
9738,23,23
9739,15,13
9740,19,20
9741,9,9
9742,12,12
9743,18,16
9744,12,11
9745,17,17
9746,21,20
9747,18,17
9748,4,3
9749,11,11
9750,12,24
9751,9,10
9752,24,25
9753,19,18
9754,24,25
9755,14,14
9756,11,11
9757,22,20
9758,17,20
9759,9,9
9760,17,17
9761,20,21
9762,10,9
9763,5,5
9764,0,2
9765,12,11
9766,17,18
9767,15,14
9768,26,24
9769,9,8
9770,13,11
9771,3,3
9772,5,7
9773,10,11
9774,13,13
9775,11,7
9776,17,17
9777,18,20
9778,22,20
9779,12,11
9780,18,16
9781,20,21
9782,15,22
9783,10,10
9784,15,16
9785,17,17
9786,15,16
9787,20,20
9788,21,20
9789,18,18
9790,19,18
9791,11,12
9792,19,20
9793,16,15
9794,17,20
9795,5,5
9796,17,11
9797,5,6
9798,19,19
9799,11,11
9800,18,18
9801,17,17
9802,19,21
9803,6,5
9804,12,11
9805,18,19
9806,22,20
9807,22,21
9808,20,25
9809,17,11
9810,20,19
9811,19,21
9812,5,6
9813,19,12
9814,19,19
9815,6,6
9816,15,14
9817,21,21
9818,11,13
9819,18,15
9820,16,16
9821,19,19
9822,27,25
9823,25,24
9824,10,9
9825,16,16
9826,22,22
9827,19,9
9828,24,24
9829,10,10
9830,22,22
9831,27,24
9832,16,16
9833,15,15
9834,21,20
9835,17,17
9836,21,21
9837,16,20
9838,5,5
9839,12,10
9840,13,14
9841,11,10
9842,11,12
9843,16,16
9844,18,12
9845,26,24
9846,19,17
9847,11,11
9848,17,21
9849,21,20
9850,16,17
9851,18,17
9852,22,22
9853,11,11
9854,13,13
9855,20,21
9856,18,18
9857,19,19
9858,15,14
9859,17,18
9860,17,16
9861,12,12
9862,22,22
9863,26,21
9864,17,17
9865,24,24
9866,20,20
9867,15,18
9868,16,16
9869,21,21
9870,16,18
9871,19,14
9872,10,8
9873,17,18
9874,12,10
9875,7,6
9876,19,19
9877,7,7
9878,23,22
9879,12,8
9880,14,14
9881,18,12
9882,17,16
9883,17,17
9884,12,12
9885,20,21
9886,19,19
9887,18,20
9888,8,8
9889,16,15
9890,20,20
9891,14,10
9892,18,12
9893,5,5
9894,10,9
9895,8,7
9896,2,2
9897,19,21
9898,20,20
9899,14,12
9900,14,14
9901,23,21
9902,20,20
9903,7,6
9904,24,22
9905,11,12
9906,15,15
9907,17,16
9908,20,19
9909,24,24
9910,14,13
9911,18,18
9912,9,9
9913,16,16
9914,10,8
9915,17,18
9916,22,23
9917,2,2
9918,19,18
9919,14,21
9920,21,21
9921,3,4
9922,23,23
9923,14,14
9924,19,18
9925,18,18
9926,11,11
9927,15,15
9928,19,4
9929,5,5
9930,22,20
9931,27,25
9932,23,21
9933,8,8
9934,18,16
9935,17,17
9936,15,15
9937,15,14
9938,22,22
9939,18,22
9940,22,20
9941,17,20
9942,20,21
9943,21,20
9944,20,19
9945,22,24
9946,14,13
9947,20,20
9948,6,6
9949,7,6
9950,24,25
9951,20,21
9952,21,22
9953,22,20
9954,14,13
9955,27,25
9956,19,18
9957,25,24
9958,19,21
9959,11,11
9960,11,10
9961,16,14
9962,20,20
9963,9,10
9964,13,13
9965,8,9
9966,25,25
9967,14,14
9968,21,23
9969,9,10
9970,23,24
9971,21,21
9972,21,14
9973,10,10
9974,12,12
9975,15,13
9976,18,20
9977,20,13
9978,9,9
9979,4,6
9980,16,20
9981,4,5
9982,15,15
9983,10,11
9984,23,23
9985,10,10
9986,24,24
9987,14,14
9988,9,10
9989,14,14
9990,20,19
9991,24,24
9992,17,22
9993,16,16
9994,15,16
9995,9,9
9996,24,24
9997,10,9
9998,19,19
9999,18,18
10000,15,20
10001,19,18
10002,14,15
10003,19,23
10004,25,24
10005,3,4
10006,16,17
10007,19,20
10008,10,11
10009,18,17
10010,17,17
10011,26,25
10012,13,13
10013,18,19
10014,13,12
10015,18,18
10016,10,7
10017,14,14
10018,11,11
10019,19,21
10020,11,8
10021,21,21
10022,21,21
10023,6,8
10024,23,23
10025,12,12
10026,21,20
10027,25,24
10028,19,19
10029,12,12
10030,13,11
10031,9,8
10032,16,10
10033,17,16
10034,14,14
10035,18,14
10036,14,13
10037,23,23
10038,29,24
10039,19,19
10040,22,24
10041,20,19
10042,19,19
10043,20,20
10044,11,11
10045,9,8
10046,16,11
10047,15,15
10048,18,21
10049,19,18
10050,15,15
10051,2,2
10052,13,15
10053,14,15
10054,4,4
10055,17,17
10056,12,11
10057,8,8
10058,2,2
10059,18,17
10060,14,14
10061,17,18
10062,15,16
10063,13,12
10064,6,6
10065,22,23
10066,5,5
10067,25,25
10068,15,15
10069,19,23
10070,15,14
10071,20,18
10072,12,13
10073,13,12
10074,15,15
10075,12,12
10076,10,10
10077,21,20
10078,24,25
10079,21,20
10080,20,21
10081,12,12
10082,11,11
10083,15,16
10084,17,20
10085,11,10
10086,8,9
10087,13,13
10088,3,3
10089,24,23
10090,18,20
10091,20,11
10092,26,25
10093,19,20
10094,6,7
10095,8,8
10096,20,24
10097,15,15
10098,8,9
10099,21,21
10100,24,24
10101,18,20
10102,15,22
10103,13,12
10104,12,12
10105,5,6
10106,13,12
10107,4,2
10108,21,21
10109,11,11
10110,16,16
10111,20,21
10112,16,18
10113,17,20
10114,19,4
10115,18,11
10116,17,17
10117,6,7
10118,11,10
10119,24,23
10120,6,6
10121,10,10
10122,15,20
10123,15,15
10124,15,14
10125,20,20
10126,18,18
10127,17,15
10128,22,22
10129,19,24
10130,9,11
10131,19,18
10132,17,18
10133,10,10
10134,14,15
10135,20,20
10136,28,25
10137,19,23
10138,20,21
10139,17,17
10140,16,16
10141,4,5
10142,22,20
10143,8,4
10144,12,22
10145,14,12
10146,5,5
10147,21,22
10148,17,17
10149,12,10
10150,3,4
10151,22,20
10152,16,16
10153,18,18
10154,6,6
10155,20,22
10156,19,20
10157,8,7
10158,18,18
10159,18,18
10160,20,20
10161,17,20
10162,20,25
10163,16,16
10164,16,16
10165,11,15
10166,22,22
10167,13,13
10168,15,13
10169,15,17
10170,17,17
10171,15,23
10172,7,7
10173,21,20
10174,21,20
10175,10,9
10176,15,17
10177,18,13
10178,11,11
10179,17,15
10180,14,14
10181,21,20
10182,7,7
10183,7,8
10184,16,20
10185,13,13
10186,22,21
10187,13,13
10188,16,17
10189,17,17
10190,18,18
10191,24,24
10192,16,16
10193,18,21
10194,14,16
10195,15,15
10196,16,16
10197,15,19
10198,25,25
10199,19,25
10200,10,10
10201,21,20
10202,18,18
10203,22,22
10204,16,16
10205,24,25
10206,25,25
10207,7,7
10208,25,25
10209,19,21
10210,22,22
10211,19,19
10212,9,8
10213,14,15
10214,13,13
10215,15,18
10216,29,25
10217,14,20
10218,23,25
10219,16,15
10220,6,8
10221,21,20
10222,12,12
10223,11,13
10224,16,15
10225,22,19
10226,16,16
10227,15,16
10228,21,25
10229,21,20
10230,21,21
10231,9,9
10232,6,6
10233,15,18
10234,21,21
10235,1,2
10236,10,10
10237,22,21
10238,18,18
10239,19,19
10240,18,22
10241,24,24
10242,21,20
10243,15,13
10244,16,17
10245,17,16
10246,4,4
10247,21,21
10248,20,20
10249,20,17
10250,18,22
10251,24,22
10252,20,19
10253,19,20
10254,9,12
10255,17,17
10256,17,15
10257,16,14
10258,17,17
10259,7,7
10260,15,24
10261,15,14
10262,18,18
10263,7,8
10264,14,14
10265,18,18
10266,16,22
10267,18,17
10268,13,13
10269,18,18
10270,18,18
10271,7,7
10272,21,21
10273,24,24
10274,10,10
10275,18,20
10276,8,8
10277,15,16
10278,17,17
10279,24,24
10280,9,9
10281,20,18
10282,27,24
10283,18,18
10284,16,16
10285,12,11
10286,12,13
10287,19,21
10288,4,4
10289,25,24
10290,5,4
10291,17,17
10292,17,23
10293,17,17
10294,23,23
10295,16,18
10296,12,13
10297,17,17
10298,24,23
10299,26,25
10300,15,14
10301,14,15
10302,14,14
10303,17,17
10304,16,25
10305,10,10
10306,16,12
10307,17,16
10308,24,24
10309,17,17
10310,16,16
10311,20,19
10312,23,21
10313,14,15
10314,21,20
10315,9,9
10316,19,18
10317,20,20
10318,13,13
10319,17,16
10320,23,22
10321,24,23
10322,18,17
10323,23,24
10324,18,18
10325,24,24
10326,23,23
10327,21,21
10328,11,10
10329,17,17
10330,17,18
10331,13,12
10332,17,17
10333,11,11
10334,20,14
10335,11,11
10336,5,5
10337,21,22
10338,14,14
10339,19,19
10340,17,17
10341,13,13
10342,20,22
10343,20,19
10344,22,22
10345,19,19
10346,16,16
10347,16,18
10348,8,6
10349,18,17
10350,22,21
10351,22,21
10352,18,19
10353,23,4
10354,17,17
10355,16,21
10356,19,19
10357,7,6
10358,17,18
10359,14,15
10360,15,16
10361,19,21
10362,25,20
10363,20,21
10364,22,24
10365,11,10
10366,26,24
10367,20,20
10368,26,25
10369,12,11
10370,18,20
10371,23,24
10372,24,24
10373,23,22
10374,5,6
10375,24,19
10376,16,6
10377,16,15
10378,20,20
10379,15,15
10380,8,8
10381,9,9
10382,23,20
10383,24,24
10384,19,18
10385,12,11
10386,10,11
10387,14,15
10388,20,21
10389,16,20
10390,15,15
10391,20,20
10392,17,17
10393,10,9
10394,10,9
10395,17,12
10396,19,19
10397,9,12
10398,20,21
10399,6,5
10400,17,16
10401,12,12
10402,21,21
10403,15,14
10404,7,7
10405,21,20
10406,8,8
10407,16,16
10408,17,17
10409,23,24
10410,17,18
10411,18,18
10412,19,20
10413,23,22
10414,21,21
10415,26,24
10416,22,22
10417,20,21
10418,14,14
10419,23,22
10420,18,20
10421,8,7
10422,17,20
10423,2,3
10424,17,17
10425,17,16
10426,19,19
10427,6,7
10428,16,13
10429,18,17
10430,20,20
10431,19,19
10432,25,24
10433,18,18
10434,22,23
10435,18,13
10436,15,15
10437,14,16
10438,19,18
10439,17,17
10440,19,19
10441,20,20
10442,17,18
10443,14,13
10444,19,20
10445,17,17
10446,21,25
10447,20,21
10448,13,13
10449,24,24
10450,20,25
10451,16,22
10452,1,2
10453,23,23
10454,21,21
10455,15,14
10456,16,16
10457,9,11
10458,22,23
10459,5,6
10460,8,8
10461,16,15
10462,15,15
10463,20,22
10464,15,15
10465,17,22
10466,16,21
10467,20,20
10468,23,23
10469,3,3
10470,20,21
10471,17,20
10472,17,15
10473,20,20
10474,18,16
10475,23,23
10476,16,16
10477,16,13
10478,19,19
10479,17,17
10480,20,20
10481,21,17
10482,3,3
10483,15,16
10484,23,22
10485,17,18
10486,10,9
10487,20,16
10488,15,15
10489,24,24
10490,13,13
10491,16,16
10492,14,14
10493,14,14
10494,22,21
10495,19,18
10496,23,23
10497,24,23
10498,19,16
10499,25,25
10500,22,22
10501,16,16
10502,9,10
10503,9,9
10504,16,16
10505,23,23
10506,19,20
10507,23,23
10508,16,14
10509,19,18
10510,19,20
10511,13,13
10512,11,11
10513,17,20
10514,19,19
10515,21,22
10516,16,17
10517,13,6
10518,18,18
10519,25,24
10520,3,2
10521,23,23
10522,17,16
10523,13,12
10524,19,22
10525,21,22
10526,19,18
10527,20,20
10528,16,16
10529,17,17
10530,21,19
10531,13,13
10532,12,12
10533,22,12
10534,21,20
10535,20,20
10536,3,3
10537,20,21
10538,26,24
10539,17,17
10540,17,17
10541,19,21
10542,20,19
10543,22,23
10544,1,3
10545,14,15
10546,7,7
10547,3,4
10548,17,25
10549,22,24
10550,21,16
10551,18,18
10552,23,20
10553,12,13
10554,15,15
10555,23,23
10556,13,13
10557,21,15
10558,16,17
10559,20,19
10560,23,25
10561,13,13
10562,4,4
10563,15,15
10564,21,21
10565,14,14
10566,13,12
10567,17,12
10568,24,22
10569,26,20
10570,15,19
10571,8,9
10572,5,6
10573,26,25
10574,28,18
10575,12,13
10576,10,11
10577,17,17
10578,11,11
10579,20,21
10580,12,11
10581,12,12
10582,5,5
10583,22,21
10584,20,20
10585,18,11
10586,13,14
10587,12,12
10588,15,15
10589,14,17
10590,4,5
10591,18,20
10592,13,14
10593,23,23
10594,14,14
10595,19,12
10596,11,12
10597,20,12
10598,6,7
10599,22,22
10600,20,20
10601,13,13
10602,7,7
10603,17,17
10604,5,6
10605,16,16
10606,18,15
10607,17,17
10608,25,23
10609,14,14
10610,23,22
10611,21,20
10612,18,18
10613,20,16
10614,19,20
10615,19,20
10616,15,14
10617,18,18
10618,15,14
10619,12,11
10620,21,21
10621,20,20
10622,7,8
10623,14,14
10624,22,21
10625,4,6
10626,13,13
10627,17,14
10628,17,21
10629,16,16
10630,13,13
10631,15,15
10632,18,19
10633,4,4
10634,7,8
10635,17,16
10636,4,4
10637,20,21
10638,20,20
10639,11,12
10640,4,4
10641,18,18
10642,18,2
10643,17,24
10644,20,20
10645,22,23
10646,19,18
10647,14,21
10648,16,15
10649,26,24
10650,11,12
10651,16,16
10652,20,20
10653,7,7
10654,21,21
10655,21,20
10656,20,20
10657,14,16
10658,4,4
10659,17,18
10660,22,18
10661,16,16
10662,17,16
10663,15,14
10664,4,5
10665,18,15
10666,7,15
10667,16,15
10668,13,17
10669,28,25
10670,14,14
10671,22,22
10672,18,18
10673,8,9
10674,25,25
10675,6,5
10676,19,20
10677,17,17
10678,17,17
10679,14,14
10680,21,7
10681,17,17
10682,24,24
10683,7,6
10684,22,20
10685,16,22
10686,17,16
10687,24,25
10688,8,7
10689,22,22
10690,13,13
10691,24,23
10692,22,20
10693,2,3
10694,15,14
10695,16,21
10696,15,21
10697,17,16
10698,9,10
10699,14,16
10700,7,7
10701,25,24
10702,20,20
10703,12,12
10704,16,21
10705,18,21
10706,21,21
10707,22,22
10708,23,24
10709,23,23
10710,22,21
10711,20,20
10712,2,2
10713,23,23
10714,22,22
10715,22,23
10716,19,11
10717,13,13
10718,18,19
10719,20,20
10720,14,14
10721,24,23
10722,11,11
10723,15,15
10724,17,13
10725,17,17
10726,7,7
10727,10,10
10728,23,22
10729,23,23
10730,19,18
10731,18,20
10732,27,25
10733,21,23
10734,18,21
10735,17,17
10736,23,24
10737,10,10
10738,9,8
10739,22,23
10740,20,21
10741,16,12
10742,11,11
10743,17,18
10744,12,12
10745,15,13
10746,4,5
10747,12,12
10748,20,19
10749,17,17
10750,22,23
10751,18,18
10752,21,20
10753,19,19
10754,8,11
10755,6,7
10756,18,17
10757,4,3
10758,16,17
10759,7,7
10760,15,15
10761,17,17
10762,20,19
10763,13,13
10764,15,15
10765,2,2
10766,2,4
10767,20,15
10768,16,15
10769,17,17
10770,17,17
10771,23,24
10772,12,13
10773,13,20
10774,10,10
10775,16,18
10776,23,22
10777,15,15
10778,23,23
10779,18,18
10780,16,16
10781,18,17
10782,15,16
10783,24,23
10784,15,15
10785,12,13
10786,22,23
10787,18,18
10788,20,20
10789,9,7
10790,18,17
10791,19,19
10792,15,15
10793,6,7
10794,6,6
10795,20,19
10796,11,11
10797,11,10
10798,22,24
10799,20,21
10800,17,15
10801,11,12
10802,21,21
10803,8,8
10804,22,24
10805,21,21
10806,26,24
10807,21,20
10808,19,5
10809,17,20
10810,24,24
10811,22,23
10812,17,9
10813,14,14
10814,25,22
10815,19,19
10816,27,20
10817,13,14
10818,15,15
10819,19,3
10820,15,15
10821,14,13
10822,23,23
10823,19,19
10824,17,17
10825,21,18
10826,20,23
10827,20,19
10828,19,22
10829,21,22
10830,14,14
10831,19,21
10832,20,21
10833,8,8
10834,17,22
10835,6,6
10836,23,23
10837,18,17
10838,24,24
10839,19,20
10840,20,21
10841,18,18
10842,7,7
10843,21,20
10844,7,8
10845,4,4
10846,14,15
10847,18,17
10848,22,23
10849,22,19
10850,12,12
10851,20,23
10852,16,17
10853,9,10
10854,21,22
10855,18,16
10856,16,22
10857,16,16
10858,14,23
10859,16,15
10860,17,16
10861,17,16
10862,12,12
10863,21,22
10864,20,14
10865,18,20
10866,16,16
10867,19,19
10868,20,19
10869,22,21
10870,17,17
10871,18,20
10872,17,17
10873,14,14
10874,14,14
10875,21,19
10876,21,20
10877,13,14
10878,15,20
10879,19,18
10880,24,24
10881,16,16
10882,17,17
10883,18,19
10884,7,8
10885,16,16
10886,3,4
10887,23,22
10888,19,20
10889,21,21
10890,25,25
10891,3,3
10892,15,14
10893,22,22
10894,8,7
10895,20,20
10896,8,9
10897,14,14
10898,19,20
10899,9,15
10900,13,13
10901,15,16
10902,14,13
10903,25,25
10904,24,23
10905,19,20
10906,24,24
10907,13,13
10908,23,23
10909,2,3
10910,16,17
10911,25,24
10912,13,13
10913,10,11
10914,12,11
10915,18,18
10916,13,13
10917,18,18
10918,19,18
10919,19,19
10920,12,12
10921,9,10
10922,19,11
10923,18,25
10924,23,23
10925,19,20
10926,17,17
10927,16,16
10928,14,13
10929,21,21
10930,20,8
10931,12,11
10932,14,14
10933,2,2
10934,15,14
10935,8,8
10936,20,18
10937,22,22
10938,18,18
10939,15,15
10940,14,14
10941,7,8
10942,17,17
10943,4,5
10944,22,23
10945,9,8
10946,18,20
10947,16,16
10948,20,19
10949,19,19
10950,26,25
10951,19,20
10952,28,18
10953,11,12
10954,5,7
10955,17,17
10956,19,13
10957,16,25
10958,17,17
10959,22,21
10960,17,16
10961,23,22
10962,15,16
10963,17,16
10964,17,24
10965,16,15
10966,23,22
10967,21,21
10968,13,12
10969,24,24
10970,6,5
10971,18,17
10972,25,25
10973,23,23
10974,19,19
10975,23,23
10976,15,14
10977,14,13
10978,16,16
10979,16,16
10980,22,20
10981,13,13
10982,21,21
10983,22,23
10984,14,14
10985,23,23
10986,10,10
10987,12,13
10988,10,15
10989,20,22
10990,18,19
10991,2,3
10992,9,8
10993,7,7
10994,18,18
10995,30,18
10996,23,20
10997,18,25
10998,16,16
10999,24,23
11000,17,17
11001,24,25
11002,14,17
11003,18,19
11004,12,14
11005,20,19
11006,24,25
11007,18,21
11008,23,23
11009,7,7
11010,20,21
11011,22,21
11012,3,3
11013,12,12
11014,13,14
11015,20,23
11016,16,16
11017,15,15
11018,20,20
11019,6,10
11020,20,20
11021,6,5
11022,20,19
11023,7,7
11024,18,18
11025,21,20
11026,10,10
11027,5,4
11028,17,17
11029,23,24
11030,18,18
11031,20,21
11032,24,23
11033,24,24
11034,5,4
11035,17,20
11036,16,16
11037,16,16
11038,11,13
11039,25,24
11040,23,22
11041,13,13
11042,16,17
11043,20,22
11044,18,22
11045,17,22
11046,18,23
11047,20,20
11048,5,5
11049,21,21
11050,8,9
11051,12,12
11052,21,19
11053,12,13
11054,22,23
11055,3,4
11056,21,20
11057,10,11
11058,15,14
11059,21,25
11060,12,10
11061,25,23
11062,16,19
11063,17,17
11064,4,5
11065,16,16
11066,20,20
11067,9,9
11068,12,12
11069,19,25
11070,14,16
11071,13,13
11072,17,17
11073,15,15
11074,20,20
11075,2,2
11076,17,14
11077,23,22
11078,13,13
11079,21,20
11080,20,20
11081,21,21
11082,15,20
11083,15,14
11084,12,13
11085,8,9
11086,4,5
11087,14,14
11088,16,13
11089,22,23
11090,11,11
11091,16,16
11092,18,17
11093,19,22
11094,18,19
11095,21,21
11096,13,13
11097,17,19
11098,8,9
11099,5,6
11100,6,7
11101,2,2
11102,9,9
11103,18,20
11104,9,9
11105,17,19
11106,7,8
11107,19,19
11108,19,20
11109,22,25
11110,20,12
11111,28,25
11112,18,17
11113,4,4
11114,18,18
11115,17,20
11116,22,23
11117,21,20
11118,8,6
11119,14,14
11120,15,20
11121,20,21
11122,12,12
11123,15,14
11124,19,2
11125,28,25
11126,23,25
11127,19,22
11128,20,20
11129,16,18
11130,12,12
11131,15,15
11132,11,12
11133,6,6
11134,7,8
11135,8,8
11136,5,6
11137,11,11
11138,16,14
11139,8,8
11140,11,10
11141,13,13
11142,10,9
11143,20,14
11144,21,22
11145,12,12
11146,8,8
11147,11,10
11148,11,12
11149,18,20
11150,16,16
11151,24,23
11152,26,25
11153,1,2
11154,8,7
11155,16,19
11156,19,20
11157,15,14
11158,9,7
11159,13,14
11160,18,19
11161,23,24
11162,14,19
11163,23,23
11164,10,9
11165,17,18
11166,17,16
11167,21,21
11168,6,7
11169,14,14
11170,13,13
11171,11,8
11172,16,17
11173,21,20
11174,11,11
11175,16,16
11176,5,6
11177,26,20
11178,13,12
11179,23,24
11180,14,12
11181,17,12
11182,10,10
11183,21,20
11184,15,12
11185,22,22
11186,24,23
11187,19,19
11188,19,18
11189,8,7
11190,20,20
11191,4,11
11192,18,25
11193,21,20
11194,14,12
